539	485	0	0	0	0
560	504	0	0	0	0
527	464	0	0	0	0
568	467	0	0	0	0
547	455	0	0	0	0
571	427	0	0	0	0
536	404	0	0	0	0
550	400	0	0	0	0
521	391	0	0	0	0
551	401	0	0	0	0
527	393	0	0	0	0
550	399	0	0	0	0
536	435	0	0	0	0
572	491	0	0	0	0
587	561	0	0	0	0
639	460	0	0	0	0
575	65	0	0	0	0
549	35	0	0	0	0
476	47	0	0	0	0
523	216	0	0	0	0
511	335	0	0	0	0
550	435	0	0	0	0
529	463	0	0	0	0
563	463	0	0	0	0
536	468	0	0	0	0
556	480	0	0	0	0
534	477	0	0	0	0
566	487	0	0	0	0
529	488	0	0	0	0
560	499	0	0	0	0
536	497	0	0	0	0
561	504	0	0	0	0
542	509	0	0	0	0
574	524	0	0	0	0
544	523	0	0	0	0
568	529	0	0	0	0
561	540	0	0	0	0
595	566	0	0	0	0
561	566	0	0	0	0
598	588	0	0	0	0
572	601	0	0	0	0
604	611	0	0	0	0
588	623	0	0	0	0
612	638	0	0	0	0
587	625	0	0	0	0
606	615	0	0	0	0
564	583	0	0	0	0
583	551	0	0	0	0
542	511	0	0	0	0
560	496	0	0	0	0
519	455	0	0	0	0
547	448	0	0	0	0
515	440	0	0	0	0
536	430	0	0	0	0
518	427	0	0	0	0
546	432	0	0	0	0
519	431	0	0	0	0
547	436	0	0	0	0
519	435	0	0	0	0
550	448	0	0	0	0
530	448	0	0	0	0
545	449	0	0	0	0
524	444	0	0	0	0
544	454	0	0	0	0
521	447	0	0	0	0
551	457	0	0	0	0
524	460	0	0	0	0
542	449	0	0	0	0
524	451	0	0	0	0
548	448	0	0	0	0
525	441	0	0	0	0
551	448	0	0	0	0
531	440	0	0	0	0
551	446	0	0	0	0
529	448	0	0	0	0
553	444	0	0	0	0
527	440	0	0	0	0
561	448	0	0	0	0
519	440	0	0	0	0
553	444	0	0	0	0
532	446	0	0	0	0
551	451	0	0	0	0
527	448	0	0	0	0
556	452	0	0	0	0
527	446	0	0	0	0
554	451	0	0	0	0
529	443	0	0	0	0
563	441	0	0	0	0
523	440	0	0	0	0
552	445	0	0	0	0
531	439	0	0	0	0
560	451	0	0	0	0
527	450	0	0	0	0
560	451	0	0	0	0
532	446	0	0	0	0
560	456	0	0	0	0
527	449	0	0	0	0
553	451	0	0	0	0
536	459	0	0	0	0
560	499	0	0	0	0
527	518	0	0	0	0
558	529	0	0	0	0
536	531	0	0	0	0
566	508	0	0	0	0
539	500	0	0	0	0
563	483	0	0	0	0
540	446	0	0	0	0
560	435	0	0	0	0
519	415	0	0	0	0
558	415	0	0	0	0
526	417	0	0	0	0
552	419	0	0	0	0
531	436	0	0	0	0
553	487	0	0	0	0
550	542	0	0	0	0
632	606	0	0	0	0
615	307	0	0	0	0
577	56	0	0	0	0
495	48	0	0	0	0
515	126	0	0	0	0
504	280	0	0	0	0
551	398	0	0	0	0
526	463	0	0	0	0
551	465	0	0	0	0
534	465	0	0	0	0
567	480	0	0	0	0
533	476	0	0	0	0
566	487	0	0	0	0
539	487	0	0	0	0
560	500	0	0	0	0
537	508	0	0	0	0
564	512	0	0	0	0
537	505	0	0	0	0
571	519	0	0	0	0
540	524	0	0	0	0
575	535	0	0	0	0
547	547	0	0	0	0
577	566	0	0	0	0
568	575	0	0	0	0
604	595	0	0	0	0
566	600	0	0	0	0
608	622	0	0	0	0
592	623	0	0	0	0
611	630	0	0	0	0
588	626	0	0	0	0
615	622	0	0	0	0
569	593	0	0	0	0
585	560	0	0	0	0
540	519	0	0	0	0
563	496	0	0	0	0
526	453	0	0	0	0
545	444	0	0	0	0
519	427	0	0	0	0
543	419	0	0	0	0
519	412	0	0	0	0
540	419	0	0	0	0
508	409	0	0	0	0
545	422	0	0	0	0
515	412	0	0	0	0
547	418	0	0	0	0
514	421	0	0	0	0
543	428	0	0	0	0
523	425	0	0	0	0
548	432	0	0	0	0
523	431	0	0	0	0
547	436	0	0	0	0
519	428	0	0	0	0
550	428	0	0	0	0
519	423	0	0	0	0
547	430	0	0	0	0
519	422	0	0	0	0
555	427	0	0	0	0
528	431	0	0	0	0
547	425	0	0	0	0
515	409	0	0	0	0
555	412	0	0	0	0
526	415	0	0	0	0
551	408	0	0	0	0
519	403	0	0	0	0
558	406	0	0	0	0
531	407	0	0	0	0
556	405	0	0	0	0
524	390	0	0	0	0
553	391	0	0	0	0
527	386	0	0	0	0
558	391	0	0	0	0
526	385	0	0	0	0
558	391	0	0	0	0
527	393	0	0	0	0
563	403	0	0	0	0
527	404	0	0	0	0
560	414	0	0	0	0
533	415	0	0	0	0
553	419	0	0	0	0
531	423	0	0	0	0
560	432	0	0	0	0
528	430	0	0	0	0
560	443	0	0	0	0
526	440	0	0	0	0
559	444	0	0	0	0
531	438	0	0	0	0
560	440	0	0	0	0
527	432	0	0	0	0
558	436	0	0	0	0
529	439	0	0	0	0
553	440	0	0	0	0
539	448	0	0	0	0
563	492	0	0	0	0
531	504	0	0	0	0
568	526	0	0	0	0
537	515	0	0	0	0
560	496	0	0	0	0
553	491	0	0	0	0
575	475	0	0	0	0
539	428	0	0	0	0
560	422	0	0	0	0
521	408	0	0	0	0
551	412	0	0	0	0
524	408	0	0	0	0
546	412	0	0	0	0
534	440	0	0	0	0
572	487	0	0	0	0
551	559	0	0	0	0
627	604	0	0	0	0
598	227	0	0	0	0
574	35	0	0	0	0
483	24	0	0	0	0
518	139	0	0	0	0
511	304	0	0	0	0
551	423	0	0	0	0
523	465	0	0	0	0
563	480	0	0	0	0
534	475	0	0	0	0
567	488	0	0	0	0
537	487	0	0	0	0
566	494	0	0	0	0
536	500	0	0	0	0
567	508	0	0	0	0
540	511	0	0	0	0
561	515	0	0	0	0
540	512	0	0	0	0
569	531	0	0	0	0
537	534	0	0	0	0
568	543	0	0	0	0
551	553	0	0	0	0
582	575	0	0	0	0
566	583	0	0	0	0
596	603	0	0	0	0
572	615	0	0	0	0
615	633	0	0	0	0
585	629	0	0	0	0
615	643	0	0	0	0
583	639	0	0	0	0
611	630	0	0	0	0
572	600	0	0	0	0
591	571	0	0	0	0
547	527	0	0	0	0
563	496	0	0	0	0
527	462	0	0	0	0
556	444	0	0	0	0
518	420	0	0	0	0
547	419	0	0	0	0
515	406	0	0	0	0
540	406	0	0	0	0
518	407	0	0	0	0
551	420	0	0	0	0
519	428	0	0	0	0
542	422	0	0	0	0
523	426	0	0	0	0
543	436	0	0	0	0
518	428	0	0	0	0
548	427	0	0	0	0
524	420	0	0	0	0
547	427	0	0	0	0
519	423	0	0	0	0
551	428	0	0	0	0
524	425	0	0	0	0
551	432	0	0	0	0
526	419	0	0	0	0
551	419	0	0	0	0
521	414	0	0	0	0
555	409	0	0	0	0
527	406	0	0	0	0
544	409	0	0	0	0
524	408	0	0	0	0
555	406	0	0	0	0
531	403	0	0	0	0
556	408	0	0	0	0
527	399	0	0	0	0
556	404	0	0	0	0
531	406	0	0	0	0
555	411	0	0	0	0
532	404	0	0	0	0
558	412	0	0	0	0
516	403	0	0	0	0
559	409	0	0	0	0
542	413	0	0	0	0
557	412	0	0	0	0
524	410	0	0	0	0
560	420	0	0	0	0
528	415	0	0	0	0
562	419	0	0	0	0
537	414	0	0	0	0
556	425	0	0	0	0
527	423	0	0	0	0
559	423	0	0	0	0
536	423	0	0	0	0
558	428	0	0	0	0
529	438	0	0	0	0
561	470	0	0	0	0
531	497	0	0	0	0
560	524	0	0	0	0
533	525	0	0	0	0
560	510	0	0	0	0
539	504	0	0	0	0
569	487	0	0	0	0
535	451	0	0	0	0
561	444	0	0	0	0
518	423	0	0	0	0
551	419	0	0	0	0
524	417	0	0	0	0
543	423	0	0	0	0
520	443	0	0	0	0
563	503	0	0	0	0
548	558	0	0	0	0
632	622	0	0	0	0
609	323	0	0	0	0
577	85	0	0	0	0
496	76	0	0	0	0
519	161	0	0	0	0
505	308	0	0	0	0
555	423	0	0	0	0
515	487	0	0	0	0
551	496	0	0	0	0
527	498	0	0	0	0
559	505	0	0	0	0
527	507	0	0	0	0
561	519	0	0	0	0
537	520	0	0	0	0
563	532	0	0	0	0
534	531	0	0	0	0
563	537	0	0	0	0
539	540	0	0	0	0
563	551	0	0	0	0
542	556	0	0	0	0
566	569	0	0	0	0
547	568	0	0	0	0
583	583	0	0	0	0
563	606	0	0	0	0
600	633	0	0	0	0
566	643	0	0	0	0
603	655	0	0	0	0
587	654	0	0	0	0
615	664	0	0	0	0
588	664	0	0	0	0
611	655	0	0	0	0
567	630	0	0	0	0
588	595	0	0	0	0
542	555	0	0	0	0
560	526	0	0	0	0
525	491	0	0	0	0
540	472	0	0	0	0
508	454	0	0	0	0
543	449	0	0	0	0
516	439	0	0	0	0
543	448	0	0	0	0
504	448	0	0	0	0
551	454	0	0	0	0
511	444	0	0	0	0
547	449	0	0	0	0
526	451	0	0	0	0
543	455	0	0	0	0
524	455	0	0	0	0
555	468	0	0	0	0
523	460	0	0	0	0
539	440	0	0	0	0
519	451	0	0	0	0
551	463	0	0	0	0
513	447	0	0	0	0
551	449	0	0	0	0
524	447	0	0	0	0
551	449	0	0	0	0
529	435	0	0	0	0
555	443	0	0	0	0
531	444	0	0	0	0
551	448	0	0	0	0
529	454	0	0	0	0
558	448	0	0	0	0
527	449	0	0	0	0
553	447	0	0	0	0
532	444	0	0	0	0
551	448	0	0	0	0
528	440	0	0	0	0
550	442	0	0	0	0
536	436	0	0	0	0
547	441	0	0	0	0
524	432	0	0	0	0
563	440	0	0	0	0
515	444	0	0	0	0
558	451	0	0	0	0
527	447	0	0	0	0
563	454	0	0	0	0
529	444	0	0	0	0
563	448	0	0	0	0
531	445	0	0	0	0
556	440	0	0	0	0
536	438	0	0	0	0
551	445	0	0	0	0
524	440	0	0	0	0
560	448	0	0	0	0
527	441	0	0	0	0
550	441	0	0	0	0
531	444	0	0	0	0
561	451	0	0	0	0
531	480	0	0	0	0
561	511	0	0	0	0
535	517	0	0	0	0
556	529	0	0	0	0
531	508	0	0	0	0
568	507	0	0	0	0
543	480	0	0	0	0
563	448	0	0	0	0
529	423	0	0	0	0
553	417	0	0	0	0
519	408	0	0	0	0
551	415	0	0	0	0
527	406	0	0	0	0
548	423	0	0	0	0
527	467	0	0	0	0
575	531	0	0	0	0
583	600	0	0	0	0
639	384	0	0	0	0
560	47	0	0	0	0
529	53	0	0	0	0
472	92	0	0	0	0
537	280	0	0	0	0
516	384	0	0	0	0
543	452	0	0	0	0
531	458	0	0	0	0
563	475	0	0	0	0
537	476	0	0	0	0
560	487	0	0	0	0
531	489	0	0	0	0
563	496	0	0	0	0
536	496	0	0	0	0
568	515	0	0	0	0
535	510	0	0	0	0
561	511	0	0	0	0
536	519	0	0	0	0
568	536	0	0	0	0
542	532	0	0	0	0
572	544	0	0	0	0
551	548	0	0	0	0
591	574	0	0	0	0
561	575	0	0	0	0
598	598	0	0	0	0
569	606	0	0	0	0
611	622	0	0	0	0
582	627	0	0	0	0
611	635	0	0	0	0
575	617	0	0	0	0
606	600	0	0	0	0
560	568	0	0	0	0
583	536	0	0	0	0
536	503	0	0	0	0
551	473	0	0	0	0
521	451	0	0	0	0
543	443	0	0	0	0
519	426	0	0	0	0
543	427	0	0	0	0
515	415	0	0	0	0
551	424	0	0	0	0
521	422	0	0	0	0
548	430	0	0	0	0
519	422	0	0	0	0
551	428	0	0	0	0
525	436	0	0	0	0
542	438	0	0	0	0
516	439	0	0	0	0
550	440	0	0	0	0
526	443	0	0	0	0
551	448	0	0	0	0
519	440	0	0	0	0
556	439	0	0	0	0
525	435	0	0	0	0
553	440	0	0	0	0
518	425	0	0	0	0
547	420	0	0	0	0
531	423	0	0	0	0
549	430	0	0	0	0
519	419	0	0	0	0
559	431	0	0	0	0
531	424	0	0	0	0
550	423	0	0	0	0
524	423	0	0	0	0
556	425	0	0	0	0
528	425	0	0	0	0
556	430	0	0	0	0
524	423	0	0	0	0
559	428	0	0	0	0
527	432	0	0	0	0
553	432	0	0	0	0
528	430	0	0	0	0
558	434	0	0	0	0
528	430	0	0	0	0
551	429	0	0	0	0
529	429	0	0	0	0
555	435	0	0	0	0
533	425	0	0	0	0
556	443	0	0	0	0
531	438	0	0	0	0
560	440	0	0	0	0
535	432	0	0	0	0
564	441	0	0	0	0
525	432	0	0	0	0
553	438	0	0	0	0
531	436	0	0	0	0
561	444	0	0	0	0
531	444	0	0	0	0
553	451	0	0	0	0
537	455	0	0	0	0
560	492	0	0	0	0
543	521	0	0	0	0
560	535	0	0	0	0
540	521	0	0	0	0
567	508	0	0	0	0
543	497	0	0	0	0
568	479	0	0	0	0
536	439	0	0	0	0
561	433	0	0	0	0
527	419	0	0	0	0
556	419	0	0	0	0
532	414	0	0	0	0
555	423	0	0	0	0
524	435	0	0	0	0
571	492	0	0	0	0
569	561	0	0	0	0
627	605	0	0	0	0
606	246	0	0	0	0
577	41	0	0	0	0
499	39	0	0	0	0
519	156	0	0	0	0
507	302	0	0	0	0
551	412	0	0	0	0
534	463	0	0	0	0
560	465	0	0	0	0
543	463	0	0	0	0
553	470	0	0	0	0
537	475	0	0	0	0
563	481	0	0	0	0
529	480	0	0	0	0
565	500	0	0	0	0
534	505	0	0	0	0
566	511	0	0	0	0
545	508	0	0	0	0
564	519	0	0	0	0
547	526	0	0	0	0
574	532	0	0	0	0
548	540	0	0	0	0
585	554	0	0	0	0
559	568	0	0	0	0
595	588	0	0	0	0
575	600	0	0	0	0
598	609	0	0	0	0
583	610	0	0	0	0
627	624	0	0	0	0
588	620	0	0	0	0
603	611	0	0	0	0
579	583	0	0	0	0
588	551	0	0	0	0
547	515	0	0	0	0
559	483	0	0	0	0
524	448	0	0	0	0
542	428	0	0	0	0
521	411	0	0	0	0
539	416	0	0	0	0
511	412	0	0	0	0
542	412	0	0	0	0
515	412	0	0	0	0
547	423	0	0	0	0
519	423	0	0	0	0
545	422	0	0	0	0
529	423	0	0	0	0
542	435	0	0	0	0
521	431	0	0	0	0
550	439	0	0	0	0
510	432	0	0	0	0
551	439	0	0	0	0
521	436	0	0	0	0
548	438	0	0	0	0
524	432	0	0	0	0
551	432	0	0	0	0
527	419	0	0	0	0
551	415	0	0	0	0
523	415	0	0	0	0
545	415	0	0	0	0
526	415	0	0	0	0
548	424	0	0	0	0
527	425	0	0	0	0
553	427	0	0	0	0
519	427	0	0	0	0
563	439	0	0	0	0
527	432	0	0	0	0
556	439	0	0	0	0
529	433	0	0	0	0
553	435	0	0	0	0
526	427	0	0	0	0
555	425	0	0	0	0
536	419	0	0	0	0
560	419	0	0	0	0
531	412	0	0	0	0
556	415	0	0	0	0
540	414	0	0	0	0
551	428	0	0	0	0
540	427	0	0	0	0
551	424	0	0	0	0
532	427	0	0	0	0
558	422	0	0	0	0
526	422	0	0	0	0
560	429	0	0	0	0
537	423	0	0	0	0
552	435	0	0	0	0
535	448	0	0	0	0
563	482	0	0	0	0
529	489	0	0	0	0
558	513	0	0	0	0
540	499	0	0	0	0
561	492	0	0	0	0
540	480	0	0	0	0
568	451	0	0	0	0
534	425	0	0	0	0
553	428	0	0	0	0
529	419	0	0	0	0
551	423	0	0	0	0
527	427	0	0	0	0
550	430	0	0	0	0
540	465	0	0	0	0
567	518	0	0	0	0
575	575	0	0	0	0
657	510	0	0	0	0
587	124	0	0	0	0
547	90	0	0	0	0
486	87	0	0	0	0
519	238	0	0	0	0
505	352	0	0	0	0
555	455	0	0	0	0
536	496	0	0	0	0
551	494	0	0	0	0
531	496	0	0	0	0
561	504	0	0	0	0
540	500	0	0	0	0
556	511	0	0	0	0
540	514	0	0	0	0
572	521	0	0	0	0
531	527	0	0	0	0
561	536	0	0	0	0
543	520	0	0	0	0
568	521	0	0	0	0
551	544	0	0	0	0
566	536	0	0	0	0
543	545	0	0	0	0
590	566	0	0	0	0
572	575	0	0	0	0
591	605	0	0	0	0
579	617	0	0	0	0
611	628	0	0	0	0
588	633	0	0	0	0
617	647	0	0	0	0
588	646	0	0	0	0
592	624	0	0	0	0
572	593	0	0	0	0
583	568	0	0	0	0
534	523	0	0	0	0
551	494	0	0	0	0
519	467	0	0	0	0
547	455	0	0	0	0
515	444	0	0	0	0
531	440	0	0	0	0
519	432	0	0	0	0
553	438	0	0	0	0
516	440	0	0	0	0
543	454	0	0	0	0
515	449	0	0	0	0
547	460	0	0	0	0
524	457	0	0	0	0
547	444	0	0	0	0
524	443	0	0	0	0
544	446	0	0	0	0
526	444	0	0	0	0
550	451	0	0	0	0
523	446	0	0	0	0
540	446	0	0	0	0
520	442	0	0	0	0
555	440	0	0	0	0
524	451	0	0	0	0
545	448	0	0	0	0
536	440	0	0	0	0
550	448	0	0	0	0
524	435	0	0	0	0
553	440	0	0	0	0
531	438	0	0	0	0
552	444	0	0	0	0
531	441	0	0	0	0
543	435	0	0	0	0
534	439	0	0	0	0
551	446	0	0	0	0
529	437	0	0	0	0
551	446	0	0	0	0
528	440	0	0	0	0
553	444	0	0	0	0
537	444	0	0	0	0
556	452	0	0	0	0
534	438	0	0	0	0
558	440	0	0	0	0
531	438	0	0	0	0
564	440	0	0	0	0
536	435	0	0	0	0
550	437	0	0	0	0
529	438	0	0	0	0
566	449	0	0	0	0
529	438	0	0	0	0
551	438	0	0	0	0
531	438	0	0	0	0
556	436	0	0	0	0
531	441	0	0	0	0
567	472	0	0	0	0
531	504	0	0	0	0
556	513	0	0	0	0
538	521	0	0	0	0
560	497	0	0	0	0
546	496	0	0	0	0
569	475	0	0	0	0
550	432	0	0	0	0
545	415	0	0	0	0
531	398	0	0	0	0
557	401	0	0	0	0
526	391	0	0	0	0
555	391	0	0	0	0
531	407	0	0	0	0
564	455	0	0	0	0
545	513	0	0	0	0
615	593	0	0	0	0
620	363	0	0	0	0
591	30	0	0	0	0
502	34	0	0	0	0
516	99	0	0	0	0
505	257	0	0	0	0
544	376	0	0	0	0
519	446	0	0	0	0
561	454	0	0	0	0
540	468	0	0	0	0
547	463	0	0	0	0
524	468	0	0	0	0
555	475	0	0	0	0
540	470	0	0	0	0
561	480	0	0	0	0
529	489	0	0	0	0
563	496	0	0	0	0
537	500	0	0	0	0
567	502	0	0	0	0
536	508	0	0	0	0
564	523	0	0	0	0
540	526	0	0	0	0
575	543	0	0	0	0
566	555	0	0	0	0
591	568	0	0	0	0
568	580	0	0	0	0
595	596	0	0	0	0
577	591	0	0	0	0
609	612	0	0	0	0
590	612	0	0	0	0
612	611	0	0	0	0
569	582	0	0	0	0
591	556	0	0	0	0
546	513	0	0	0	0
560	476	0	0	0	0
526	438	0	0	0	0
547	432	0	0	0	0
525	412	0	0	0	0
537	408	0	0	0	0
519	409	0	0	0	0
536	406	0	0	0	0
519	404	0	0	0	0
544	412	0	0	0	0
516	409	0	0	0	0
541	413	0	0	0	0
524	408	0	0	0	0
542	419	0	0	0	0
524	419	0	0	0	0
537	427	0	0	0	0
521	425	0	0	0	0
545	430	0	0	0	0
513	423	0	0	0	0
553	435	0	0	0	0
524	435	0	0	0	0
544	430	0	0	0	0
519	423	0	0	0	0
544	427	0	0	0	0
521	423	0	0	0	0
547	427	0	0	0	0
525	423	0	0	0	0
547	419	0	0	0	0
519	428	0	0	0	0
556	427	0	0	0	0
529	428	0	0	0	0
551	432	0	0	0	0
531	430	0	0	0	0
543	434	0	0	0	0
526	431	0	0	0	0
548	425	0	0	0	0
527	423	0	0	0	0
556	435	0	0	0	0
524	423	0	0	0	0
560	436	0	0	0	0
528	435	0	0	0	0
551	436	0	0	0	0
526	440	0	0	0	0
551	441	0	0	0	0
529	435	0	0	0	0
555	440	0	0	0	0
534	439	0	0	0	0
556	441	0	0	0	0
528	440	0	0	0	0
558	447	0	0	0	0
536	448	0	0	0	0
551	448	0	0	0	0
526	444	0	0	0	0
551	452	0	0	0	0
531	448	0	0	0	0
556	463	0	0	0	0
527	488	0	0	0	0
563	527	0	0	0	0
535	531	0	0	0	0
561	524	0	0	0	0
531	494	0	0	0	0
568	498	0	0	0	0
543	463	0	0	0	0
560	435	0	0	0	0
531	416	0	0	0	0
556	415	0	0	0	0
518	399	0	0	0	0
553	406	0	0	0	0
527	399	0	0	0	0
551	419	0	0	0	0
536	472	0	0	0	0
577	542	0	0	0	0
600	588	0	0	0	0
633	231	0	0	0	0
543	14	0	0	0	0
512	31	0	0	0	0
492	132	0	0	0	0
531	295	0	0	0	0
519	401	0	0	0	0
551	460	0	0	0	0
534	455	0	0	0	0
551	460	0	0	0	0
537	463	0	0	0	0
556	476	0	0	0	0
529	471	0	0	0	0
551	482	0	0	0	0
540	489	0	0	0	0
567	508	0	0	0	0
534	508	0	0	0	0
555	518	0	0	0	0
543	521	0	0	0	0
561	540	0	0	0	0
551	540	0	0	0	0
572	552	0	0	0	0
555	560	0	0	0	0
582	575	0	0	0	0
575	591	0	0	0	0
595	608	0	0	0	0
580	612	0	0	0	0
612	624	0	0	0	0
583	620	0	0	0	0
620	632	0	0	0	0
575	614	0	0	0	0
598	587	0	0	0	0
560	551	0	0	0	0
568	516	0	0	0	0
541	476	0	0	0	0
549	459	0	0	0	0
515	433	0	0	0	0
540	423	0	0	0	0
515	416	0	0	0	0
547	416	0	0	0	0
511	411	0	0	0	0
543	415	0	0	0	0
524	415	0	0	0	0
540	422	0	0	0	0
516	415	0	0	0	0
551	422	0	0	0	0
521	423	0	0	0	0
543	433	0	0	0	0
519	432	0	0	0	0
534	427	0	0	0	0
526	430	0	0	0	0
548	438	0	0	0	0
515	431	0	0	0	0
544	440	0	0	0	0
521	432	0	0	0	0
550	431	0	0	0	0
527	432	0	0	0	0
543	430	0	0	0	0
526	415	0	0	0	0
540	419	0	0	0	0
524	415	0	0	0	0
545	422	0	0	0	0
524	423	0	0	0	0
547	427	0	0	0	0
529	423	0	0	0	0
543	431	0	0	0	0
521	424	0	0	0	0
551	425	0	0	0	0
531	423	0	0	0	0
553	433	0	0	0	0
524	423	0	0	0	0
545	425	0	0	0	0
526	423	0	0	0	0
555	423	0	0	0	0
527	420	0	0	0	0
551	423	0	0	0	0
529	419	0	0	0	0
556	428	0	0	0	0
531	430	0	0	0	0
553	443	0	0	0	0
531	462	0	0	0	0
551	489	0	0	0	0
529	496	0	0	0	0
553	519	0	0	0	0
534	507	0	0	0	0
559	497	0	0	0	0
550	497	0	0	0	0
566	472	0	0	0	0
535	443	0	0	0	0
542	434	0	0	0	0
527	430	0	0	0	0
540	435	0	0	0	0
526	435	0	0	0	0
542	433	0	0	0	0
521	463	0	0	0	0
550	519	0	0	0	0
574	572	0	0	0	0
642	595	0	0	0	0
609	262	0	0	0	0
563	103	0	0	0	0
496	81	0	0	0	0
512	177	0	0	0	0
503	313	0	0	0	0
544	420	0	0	0	0
535	487	0	0	0	0
545	494	0	0	0	0
531	489	0	0	0	0
557	495	0	0	0	0
527	491	0	0	0	0
561	508	0	0	0	0
534	500	0	0	0	0
553	499	0	0	0	0
537	508	0	0	0	0
567	516	0	0	0	0
540	519	0	0	0	0
567	529	0	0	0	0
543	528	0	0	0	0
566	540	0	0	0	0
555	551	0	0	0	0
588	559	0	0	0	0
569	572	0	0	0	0
591	591	0	0	0	0
574	604	0	0	0	0
611	622	0	0	0	0
591	623	0	0	0	0
608	632	0	0	0	0
585	627	0	0	0	0
608	615	0	0	0	0
572	595	0	0	0	0
575	560	0	0	0	0
536	519	0	0	0	0
555	496	0	0	0	0
527	467	0	0	0	0
540	451	0	0	0	0
519	436	0	0	0	0
545	438	0	0	0	0
519	436	0	0	0	0
527	428	0	0	0	0
519	431	0	0	0	0
551	438	0	0	0	0
524	435	0	0	0	0
545	432	0	0	0	0
526	440	0	0	0	0
543	435	0	0	0	0
524	438	0	0	0	0
547	444	0	0	0	0
533	438	0	0	0	0
548	444	0	0	0	0
526	445	0	0	0	0
551	451	0	0	0	0
524	444	0	0	0	0
550	452	0	0	0	0
527	452	0	0	0	0
540	441	0	0	0	0
531	441	0	0	0	0
547	443	0	0	0	0
533	443	0	0	0	0
560	457	0	0	0	0
527	443	0	0	0	0
547	448	0	0	0	0
531	447	0	0	0	0
556	448	0	0	0	0
537	447	0	0	0	0
551	455	0	0	0	0
527	444	0	0	0	0
560	449	0	0	0	0
535	451	0	0	0	0
551	455	0	0	0	0
531	448	0	0	0	0
555	452	0	0	0	0
540	457	0	0	0	0
551	462	0	0	0	0
535	455	0	0	0	0
560	451	0	0	0	0
527	451	0	0	0	0
558	455	0	0	0	0
539	457	0	0	0	0
555	486	0	0	0	0
550	519	0	0	0	0
568	524	0	0	0	0
543	518	0	0	0	0
559	492	0	0	0	0
549	494	0	0	0	0
572	471	0	0	0	0
540	434	0	0	0	0
551	415	0	0	0	0
529	406	0	0	0	0
545	400	0	0	0	0
524	396	0	0	0	0
558	399	0	0	0	0
524	409	0	0	0	0
557	451	0	0	0	0
555	512	0	0	0	0
604	588	0	0	0	0
632	391	0	0	0	0
599	26	0	0	0	0
505	20	0	0	0	0
510	71	0	0	0	0
492	222	0	0	0	0
543	352	0	0	0	0
520	432	0	0	0	0
550	446	0	0	0	0
536	444	0	0	0	0
553	451	0	0	0	0
532	441	0	0	0	0
551	446	0	0	0	0
537	443	0	0	0	0
550	448	0	0	0	0
531	449	0	0	0	0
568	465	0	0	0	0
536	464	0	0	0	0
551	463	0	0	0	0
547	486	0	0	0	0
561	492	0	0	0	0
532	492	0	0	0	0
571	511	0	0	0	0
566	526	0	0	0	0
583	542	0	0	0	0
568	558	0	0	0	0
600	575	0	0	0	0
579	583	0	0	0	0
606	598	0	0	0	0
580	593	0	0	0	0
603	593	0	0	0	0
572	569	0	0	0	0
583	537	0	0	0	0
547	504	0	0	0	0
559	476	0	0	0	0
530	448	0	0	0	0
543	432	0	0	0	0
524	415	0	0	0	0
543	420	0	0	0	0
519	403	0	0	0	0
548	408	0	0	0	0
518	413	0	0	0	0
542	415	0	0	0	0
524	423	0	0	0	0
543	424	0	0	0	0
524	423	0	0	0	0
551	435	0	0	0	0
527	435	0	0	0	0
540	435	0	0	0	0
526	435	0	0	0	0
550	449	0	0	0	0
525	446	0	0	0	0
547	451	0	0	0	0
528	449	0	0	0	0
547	448	0	0	0	0
527	443	0	0	0	0
556	438	0	0	0	0
524	439	0	0	0	0
547	446	0	0	0	0
521	435	0	0	0	0
543	435	0	0	0	0
534	438	0	0	0	0
556	446	0	0	0	0
527	444	0	0	0	0
549	441	0	0	0	0
535	441	0	0	0	0
550	448	0	0	0	0
527	444	0	0	0	0
551	444	0	0	0	0
527	449	0	0	0	0
547	441	0	0	0	0
524	440	0	0	0	0
551	441	0	0	0	0
536	440	0	0	0	0
553	440	0	0	0	0
527	433	0	0	0	0
547	433	0	0	0	0
534	433	0	0	0	0
551	444	0	0	0	0
527	432	0	0	0	0
553	435	0	0	0	0
540	448	0	0	0	0
559	472	0	0	0	0
529	498	0	0	0	0
558	505	0	0	0	0
531	496	0	0	0	0
551	475	0	0	0	0
546	479	0	0	0	0
563	472	0	0	0	0
542	440	0	0	0	0
545	408	0	0	0	0
523	399	0	0	0	0
537	403	0	0	0	0
521	406	0	0	0	0
543	408	0	0	0	0
519	417	0	0	0	0
552	467	0	0	0	0
546	527	0	0	0	0
583	622	0	0	0	0
615	448	0	0	0	0
595	51	0	0	0	0
504	17	0	0	0	0
497	67	0	0	0	0
499	248	0	0	0	0
536	388	0	0	0	0
527	460	0	0	0	0
547	467	0	0	0	0
526	465	0	0	0	0
548	478	0	0	0	0
540	479	0	0	0	0
550	483	0	0	0	0
540	481	0	0	0	0
559	488	0	0	0	0
531	491	0	0	0	0
551	499	0	0	0	0
537	499	0	0	0	0
560	508	0	0	0	0
537	514	0	0	0	0
568	521	0	0	0	0
540	533	0	0	0	0
574	548	0	0	0	0
572	558	0	0	0	0
591	580	0	0	0	0
574	588	0	0	0	0
595	600	0	0	0	0
569	600	0	0	0	0
612	604	0	0	0	0
593	611	0	0	0	0
604	600	0	0	0	0
579	583	0	0	0	0
588	553	0	0	0	0
556	512	0	0	0	0
553	481	0	0	0	0
528	449	0	0	0	0
543	430	0	0	0	0
527	422	0	0	0	0
529	412	0	0	0	0
519	415	0	0	0	0
540	419	0	0	0	0
523	415	0	0	0	0
547	418	0	0	0	0
526	415	0	0	0	0
542	412	0	0	0	0
527	415	0	0	0	0
543	422	0	0	0	0
519	432	0	0	0	0
537	423	0	0	0	0
515	423	0	0	0	0
543	428	0	0	0	0
524	430	0	0	0	0
543	431	0	0	0	0
524	428	0	0	0	0
540	428	0	0	0	0
524	419	0	0	0	0
543	423	0	0	0	0
527	419	0	0	0	0
541	415	0	0	0	0
527	417	0	0	0	0
545	419	0	0	0	0
531	423	0	0	0	0
546	425	0	0	0	0
527	419	0	0	0	0
547	422	0	0	0	0
527	419	0	0	0	0
549	419	0	0	0	0
529	419	0	0	0	0
546	415	0	0	0	0
521	412	0	0	0	0
550	414	0	0	0	0
531	415	0	0	0	0
548	415	0	0	0	0
524	418	0	0	0	0
548	428	0	0	0	0
531	415	0	0	0	0
536	422	0	0	0	0
530	422	0	0	0	0
552	451	0	0	0	0
531	480	0	0	0	0
551	489	0	0	0	0
537	483	0	0	0	0
551	455	0	0	0	0
537	460	0	0	0	0
563	430	0	0	0	0
537	398	0	0	0	0
532	377	0	0	0	0
520	368	0	0	0	0
547	380	0	0	0	0
527	387	0	0	0	0
540	385	0	0	0	0
527	395	0	0	0	0
551	446	0	0	0	0
540	493	0	0	0	0
617	558	0	0	0	0
636	404	0	0	0	0
588	84	0	0	0	0
510	69	0	0	0	0
512	96	0	0	0	0
510	259	0	0	0	0
527	368	0	0	0	0
532	465	0	0	0	0
548	493	0	0	0	0
540	497	0	0	0	0
555	504	0	0	0	0
542	503	0	0	0	0
561	519	0	0	0	0
535	519	0	0	0	0
551	524	0	0	0	0
543	521	0	0	0	0
556	529	0	0	0	0
550	531	0	0	0	0
573	550	0	0	0	0
545	550	0	0	0	0
566	556	0	0	0	0
551	567	0	0	0	0
577	569	0	0	0	0
564	587	0	0	0	0
591	612	0	0	0	0
580	624	0	0	0	0
600	643	0	0	0	0
585	643	0	0	0	0
603	643	0	0	0	0
585	641	0	0	0	0
608	636	0	0	0	0
572	620	0	0	0	0
563	590	0	0	0	0
547	560	0	0	0	0
553	524	0	0	0	0
526	487	0	0	0	0
543	475	0	0	0	0
519	452	0	0	0	0
536	451	0	0	0	0
519	446	0	0	0	0
536	448	0	0	0	0
515	440	0	0	0	0
543	448	0	0	0	0
527	454	0	0	0	0
539	440	0	0	0	0
524	449	0	0	0	0
540	452	0	0	0	0
521	454	0	0	0	0
544	455	0	0	0	0
535	456	0	0	0	0
539	461	0	0	0	0
531	463	0	0	0	0
547	455	0	0	0	0
527	455	0	0	0	0
545	455	0	0	0	0
536	448	0	0	0	0
542	444	0	0	0	0
534	441	0	0	0	0
551	444	0	0	0	0
527	434	0	0	0	0
547	441	0	0	0	0
540	431	0	0	0	0
543	435	0	0	0	0
536	431	0	0	0	0
563	441	0	0	0	0
532	441	0	0	0	0
545	438	0	0	0	0
540	441	0	0	0	0
543	435	0	0	0	0
536	443	0	0	0	0
550	440	0	0	0	0
544	433	0	0	0	0
558	455	0	0	0	0
524	449	0	0	0	0
563	465	0	0	0	0
543	497	0	0	0	0
561	504	0	0	0	0
543	513	0	0	0	0
563	487	0	0	0	0
543	483	0	0	0	0
575	475	0	0	0	0
543	446	0	0	0	0
557	423	0	0	0	0
531	415	0	0	0	0
559	398	0	0	0	0
531	408	0	0	0	0
551	408	0	0	0	0
524	396	0	0	0	0
543	417	0	0	0	0
547	478	0	0	0	0
596	542	0	0	0	0
624	543	0	0	0	0
636	188	0	0	0	0
543	39	0	0	0	0
519	40	0	0	0	0
505	141	0	0	0	0
531	289	0	0	0	0
541	391	0	0	0	0
558	447	0	0	0	0
543	444	0	0	0	0
555	455	0	0	0	0
543	449	0	0	0	0
551	462	0	0	0	0
543	462	0	0	0	0
559	467	0	0	0	0
555	470	0	0	0	0
563	483	0	0	0	0
540	478	0	0	0	0
569	473	0	0	0	0
551	486	0	0	0	0
559	496	0	0	0	0
551	499	0	0	0	0
593	520	0	0	0	0
556	532	0	0	0	0
591	540	0	0	0	0
574	551	0	0	0	0
600	579	0	0	0	0
575	585	0	0	0	0
611	593	0	0	0	0
595	595	0	0	0	0
608	588	0	0	0	0
583	568	0	0	0	0
593	536	0	0	0	0
568	503	0	0	0	0
560	469	0	0	0	0
520	430	0	0	0	0
551	412	0	0	0	0
531	399	0	0	0	0
539	391	0	0	0	0
522	379	0	0	0	0
542	386	0	0	0	0
529	390	0	0	0	0
543	400	0	0	0	0
516	391	0	0	0	0
551	399	0	0	0	0
531	402	0	0	0	0
550	395	0	0	0	0
531	407	0	0	0	0
543	399	0	0	0	0
543	411	0	0	0	0
540	409	0	0	0	0
519	408	0	0	0	0
540	415	0	0	0	0
529	415	0	0	0	0
543	412	0	0	0	0
526	412	0	0	0	0
547	409	0	0	0	0
529	409	0	0	0	0
547	408	0	0	0	0
531	409	0	0	0	0
543	411	0	0	0	0
527	399	0	0	0	0
542	408	0	0	0	0
531	411	0	0	0	0
553	417	0	0	0	0
534	420	0	0	0	0
545	415	0	0	0	0
531	423	0	0	0	0
556	428	0	0	0	0
531	414	0	0	0	0
544	412	0	0	0	0
536	415	0	0	0	0
545	423	0	0	0	0
532	419	0	0	0	0
555	424	0	0	0	0
535	423	0	0	0	0
547	420	0	0	0	0
534	430	0	0	0	0
558	432	0	0	0	0
531	430	0	0	0	0
547	444	0	0	0	0
535	496	0	0	0	0
563	505	0	0	0	0
536	519	0	0	0	0
558	505	0	0	0	0
531	487	0	0	0	0
572	476	0	0	0	0
559	452	0	0	0	0
548	427	0	0	0	0
523	403	0	0	0	0
537	399	0	0	0	0
524	399	0	0	0	0
545	396	0	0	0	0
515	395	0	0	0	0
553	423	0	0	0	0
543	472	0	0	0	0
572	553	0	0	0	0
588	619	0	0	0	0
624	255	0	0	0	0
551	1	0	0	0	0
508	3	0	0	0	0
472	103	0	0	0	0
527	295	0	0	0	0
516	409	0	0	0	0
545	455	0	0	0	0
540	451	0	0	0	0
558	465	0	0	0	0
540	467	0	0	0	0
550	471	0	0	0	0
537	479	0	0	0	0
543	472	0	0	0	0
528	468	0	0	0	0
560	481	0	0	0	0
534	489	0	0	0	0
550	496	0	0	0	0
540	499	0	0	0	0
550	503	0	0	0	0
547	508	0	0	0	0
569	537	0	0	0	0
543	534	0	0	0	0
583	556	0	0	0	0
563	580	0	0	0	0
590	588	0	0	0	0
583	593	0	0	0	0
600	605	0	0	0	0
588	600	0	0	0	0
608	595	0	0	0	0
585	578	0	0	0	0
590	555	0	0	0	0
552	519	0	0	0	0
561	484	0	0	0	0
540	460	0	0	0	0
539	436	0	0	0	0
527	415	0	0	0	0
547	415	0	0	0	0
514	412	0	0	0	0
540	390	0	0	0	0
519	374	0	0	0	0
540	384	0	0	0	0
536	385	0	0	0	0
536	391	0	0	0	0
519	380	0	0	0	0
543	391	0	0	0	0
524	402	0	0	0	0
536	400	0	0	0	0
527	409	0	0	0	0
543	422	0	0	0	0
529	423	0	0	0	0
543	423	0	0	0	0
527	422	0	0	0	0
547	419	0	0	0	0
521	423	0	0	0	0
543	416	0	0	0	0
527	404	0	0	0	0
532	417	0	0	0	0
524	412	0	0	0	0
543	413	0	0	0	0
527	419	0	0	0	0
551	419	0	0	0	0
533	414	0	0	0	0
542	417	0	0	0	0
531	419	0	0	0	0
544	419	0	0	0	0
536	428	0	0	0	0
550	424	0	0	0	0
524	417	0	0	0	0
541	423	0	0	0	0
536	422	0	0	0	0
547	423	0	0	0	0
521	420	0	0	0	0
552	423	0	0	0	0
531	431	0	0	0	0
543	420	0	0	0	0
527	427	0	0	0	0
548	436	0	0	0	0
536	448	0	0	0	0
547	484	0	0	0	0
531	496	0	0	0	0
551	503	0	0	0	0
537	508	0	0	0	0
547	486	0	0	0	0
543	479	0	0	0	0
560	455	0	0	0	0
543	432	0	0	0	0
540	412	0	0	0	0
524	395	0	0	0	0
539	393	0	0	0	0
526	391	0	0	0	0
547	401	0	0	0	0
527	417	0	0	0	0
543	478	0	0	0	0
553	533	0	0	0	0
619	587	0	0	0	0
622	368	0	0	0	0
594	63	0	0	0	0
510	67	0	0	0	0
504	124	0	0	0	0
500	268	0	0	0	0
536	380	0	0	0	0
531	468	0	0	0	0
551	483	0	0	0	0
540	487	0	0	0	0
543	492	0	0	0	0
536	492	0	0	0	0
552	505	0	0	0	0
539	504	0	0	0	0
551	505	0	0	0	0
535	505	0	0	0	0
564	507	0	0	0	0
543	510	0	0	0	0
551	528	0	0	0	0
547	534	0	0	0	0
553	536	0	0	0	0
550	547	0	0	0	0
575	559	0	0	0	0
560	566	0	0	0	0
582	579	0	0	0	0
577	600	0	0	0	0
584	615	0	0	0	0
583	622	0	0	0	0
600	627	0	0	0	0
589	615	0	0	0	0
600	614	0	0	0	0
574	595	0	0	0	0
575	566	0	0	0	0
550	543	0	0	0	0
551	518	0	0	0	0
521	472	0	0	0	0
536	463	0	0	0	0
527	457	0	0	0	0
539	451	0	0	0	0
524	449	0	0	0	0
531	448	0	0	0	0
527	441	0	0	0	0
543	446	0	0	0	0
531	455	0	0	0	0
543	455	0	0	0	0
521	460	0	0	0	0
540	459	0	0	0	0
540	457	0	0	0	0
536	455	0	0	0	0
527	451	0	0	0	0
543	449	0	0	0	0
531	453	0	0	0	0
547	460	0	0	0	0
536	457	0	0	0	0
549	455	0	0	0	0
524	449	0	0	0	0
547	436	0	0	0	0
536	436	0	0	0	0
547	443	0	0	0	0
536	438	0	0	0	0
548	444	0	0	0	0
531	435	0	0	0	0
555	451	0	0	0	0
531	446	0	0	0	0
556	444	0	0	0	0
540	449	0	0	0	0
556	454	0	0	0	0
535	448	0	0	0	0
545	448	0	0	0	0
547	447	0	0	0	0
551	448	0	0	0	0
530	451	0	0	0	0
556	451	0	0	0	0
545	459	0	0	0	0
556	487	0	0	0	0
543	510	0	0	0	0
568	512	0	0	0	0
542	531	0	0	0	0
558	499	0	0	0	0
543	497	0	0	0	0
574	486	0	0	0	0
550	459	0	0	0	0
543	433	0	0	0	0
531	419	0	0	0	0
551	427	0	0	0	0
531	425	0	0	0	0
547	415	0	0	0	0
531	412	0	0	0	0
551	452	0	0	0	0
537	502	0	0	0	0
595	582	0	0	0	0
620	518	0	0	0	0
608	96	0	0	0	0
524	24	0	0	0	0
513	51	0	0	0	0
498	195	0	0	0	0
527	334	0	0	0	0
536	437	0	0	0	0
553	472	0	0	0	0
536	472	0	0	0	0
553	476	0	0	0	0
547	487	0	0	0	0
551	491	0	0	0	0
536	486	0	0	0	0
551	494	0	0	0	0
550	495	0	0	0	0
561	505	0	0	0	0
543	500	0	0	0	0
558	512	0	0	0	0
536	515	0	0	0	0
566	527	0	0	0	0
550	540	0	0	0	0
560	551	0	0	0	0
560	561	0	0	0	0
593	583	0	0	0	0
577	601	0	0	0	0
600	615	0	0	0	0
579	615	0	0	0	0
600	615	0	0	0	0
590	614	0	0	0	0
596	603	0	0	0	0
579	583	0	0	0	0
583	550	0	0	0	0
551	515	0	0	0	0
555	487	0	0	0	0
519	449	0	0	0	0
540	432	0	0	0	0
531	422	0	0	0	0
534	416	0	0	0	0
526	409	0	0	0	0
542	412	0	0	0	0
523	408	0	0	0	0
540	419	0	0	0	0
530	428	0	0	0	0
535	419	0	0	0	0
524	422	0	0	0	0
561	435	0	0	0	0
537	438	0	0	0	0
548	444	0	0	0	0
526	444	0	0	0	0
551	444	0	0	0	0
531	446	0	0	0	0
551	451	0	0	0	0
513	448	0	0	0	0
556	455	0	0	0	0
529	455	0	0	0	0
551	448	0	0	0	0
531	448	0	0	0	0
542	448	0	0	0	0
535	436	0	0	0	0
556	441	0	0	0	0
532	435	0	0	0	0
545	435	0	0	0	0
532	432	0	0	0	0
551	422	0	0	0	0
531	419	0	0	0	0
543	427	0	0	0	0
536	423	0	0	0	0
551	427	0	0	0	0
543	423	0	0	0	0
548	422	0	0	0	0
531	422	0	0	0	0
556	425	0	0	0	0
529	423	0	0	0	0
544	423	0	0	0	0
541	427	0	0	0	0
556	428	0	0	0	0
536	432	0	0	0	0
554	428	0	0	0	0
529	423	0	0	0	0
546	433	0	0	0	0
542	440	0	0	0	0
555	479	0	0	0	0
543	505	0	0	0	0
553	504	0	0	0	0
547	511	0	0	0	0
551	487	0	0	0	0
540	472	0	0	0	0
574	467	0	0	0	0
543	423	0	0	0	0
539	404	0	0	0	0
527	396	0	0	0	0
539	387	0	0	0	0
526	396	0	0	0	0
551	396	0	0	0	0
531	403	0	0	0	0
550	448	0	0	0	0
551	510	0	0	0	0
598	609	0	0	0	0
613	432	0	0	0	0
593	11	0	0	0	0
509	1	0	0	0	0
499	34	0	0	0	0
496	240	0	0	0	0
543	384	0	0	0	0
526	440	0	0	0	0
551	457	0	0	0	0
531	464	0	0	0	0
551	473	0	0	0	0
537	480	0	0	0	0
555	484	0	0	0	0
543	487	0	0	0	0
553	487	0	0	0	0
543	500	0	0	0	0
550	508	0	0	0	0
531	504	0	0	0	0
560	519	0	0	0	0
542	524	0	0	0	0
548	535	0	0	0	0
551	534	0	0	0	0
568	551	0	0	0	0
558	560	0	0	0	0
591	572	0	0	0	0
574	585	0	0	0	0
595	603	0	0	0	0
583	603	0	0	0	0
606	604	0	0	0	0
600	614	0	0	0	0
604	600	0	0	0	0
561	574	0	0	0	0
575	536	0	0	0	0
548	504	0	0	0	0
556	480	0	0	0	0
537	455	0	0	0	0
542	435	0	0	0	0
531	423	0	0	0	0
543	422	0	0	0	0
519	412	0	0	0	0
534	408	0	0	0	0
519	400	0	0	0	0
540	409	0	0	0	0
531	415	0	0	0	0
537	411	0	0	0	0
515	409	0	0	0	0
545	422	0	0	0	0
531	420	0	0	0	0
540	425	0	0	0	0
518	428	0	0	0	0
542	428	0	0	0	0
519	430	0	0	0	0
545	433	0	0	0	0
527	423	0	0	0	0
539	424	0	0	0	0
523	423	0	0	0	0
543	428	0	0	0	0
531	425	0	0	0	0
545	425	0	0	0	0
531	425	0	0	0	0
548	428	0	0	0	0
536	422	0	0	0	0
550	422	0	0	0	0
537	423	0	0	0	0
550	424	0	0	0	0
542	424	0	0	0	0
555	427	0	0	0	0
534	427	0	0	0	0
547	431	0	0	0	0
536	427	0	0	0	0
551	427	0	0	0	0
535	423	0	0	0	0
545	425	0	0	0	0
536	423	0	0	0	0
540	420	0	0	0	0
542	418	0	0	0	0
553	425	0	0	0	0
542	440	0	0	0	0
547	476	0	0	0	0
540	492	0	0	0	0
555	508	0	0	0	0
543	513	0	0	0	0
555	487	0	0	0	0
542	476	0	0	0	0
559	455	0	0	0	0
536	423	0	0	0	0
547	411	0	0	0	0
528	404	0	0	0	0
543	403	0	0	0	0
536	403	0	0	0	0
543	398	0	0	0	0
527	411	0	0	0	0
551	467	0	0	0	0
563	524	0	0	0	0
631	574	0	0	0	0
632	329	0	0	0	0
578	63	0	0	0	0
502	48	0	0	0	0
511	108	0	0	0	0
511	283	0	0	0	0
539	371	0	0	0	0
527	455	0	0	0	0
548	476	0	0	0	0
536	480	0	0	0	0
556	487	0	0	0	0
537	483	0	0	0	0
547	497	0	0	0	0
555	504	0	0	0	0
550	507	0	0	0	0
533	500	0	0	0	0
563	515	0	0	0	0
545	512	0	0	0	0
560	520	0	0	0	0
550	536	0	0	0	0
563	543	0	0	0	0
555	555	0	0	0	0
571	566	0	0	0	0
583	579	0	0	0	0
593	604	0	0	0	0
583	611	0	0	0	0
595	625	0	0	0	0
585	627	0	0	0	0
615	638	0	0	0	0
579	627	0	0	0	0
600	624	0	0	0	0
577	603	0	0	0	0
568	568	0	0	0	0
542	536	0	0	0	0
543	508	0	0	0	0
531	479	0	0	0	0
539	455	0	0	0	0
527	449	0	0	0	0
536	446	0	0	0	0
519	434	0	0	0	0
540	433	0	0	0	0
529	432	0	0	0	0
543	451	0	0	0	0
514	454	0	0	0	0
543	444	0	0	0	0
534	455	0	0	0	0
553	463	0	0	0	0
524	463	0	0	0	0
543	467	0	0	0	0
537	463	0	0	0	0
545	465	0	0	0	0
524	486	0	0	0	0
540	472	0	0	0	0
527	475	0	0	0	0
537	480	0	0	0	0
536	476	0	0	0	0
542	472	0	0	0	0
536	455	0	0	0	0
548	461	0	0	0	0
531	455	0	0	0	0
540	448	0	0	0	0
540	451	0	0	0	0
550	459	0	0	0	0
532	452	0	0	0	0
547	449	0	0	0	0
545	463	0	0	0	0
547	457	0	0	0	0
542	452	0	0	0	0
546	457	0	0	0	0
536	460	0	0	0	0
556	463	0	0	0	0
534	457	0	0	0	0
551	459	0	0	0	0
536	468	0	0	0	0
553	499	0	0	0	0
542	525	0	0	0	0
547	531	0	0	0	0
540	534	0	0	0	0
560	500	0	0	0	0
542	505	0	0	0	0
572	487	0	0	0	0
543	446	0	0	0	0
547	423	0	0	0	0
526	414	0	0	0	0
545	406	0	0	0	0
519	401	0	0	0	0
551	408	0	0	0	0
541	413	0	0	0	0
548	464	0	0	0	0
543	515	0	0	0	0
604	595	0	0	0	0
627	444	0	0	0	0
598	70	0	0	0	0
512	36	0	0	0	0
510	81	0	0	0	0
487	227	0	0	0	0
545	361	0	0	0	0
531	455	0	0	0	0
540	467	0	0	0	0
536	475	0	0	0	0
560	481	0	0	0	0
534	475	0	0	0	0
561	494	0	0	0	0
527	487	0	0	0	0
560	478	0	0	0	0
536	496	0	0	0	0
551	496	0	0	0	0
540	495	0	0	0	0
567	499	0	0	0	0
536	499	0	0	0	0
561	502	0	0	0	0
543	519	0	0	0	0
582	526	0	0	0	0
559	539	0	0	0	0
574	556	0	0	0	0
583	571	0	0	0	0
604	591	0	0	0	0
580	588	0	0	0	0
605	600	0	0	0	0
591	611	0	0	0	0
607	593	0	0	0	0
573	568	0	0	0	0
572	528	0	0	0	0
551	498	0	0	0	0
552	470	0	0	0	0
524	432	0	0	0	0
550	423	0	0	0	0
525	412	0	0	0	0
537	419	0	0	0	0
521	412	0	0	0	0
543	409	0	0	0	0
526	420	0	0	0	0
543	435	0	0	0	0
527	436	0	0	0	0
542	432	0	0	0	0
531	428	0	0	0	0
547	437	0	0	0	0
531	423	0	0	0	0
551	439	0	0	0	0
523	422	0	0	0	0
536	423	0	0	0	0
526	428	0	0	0	0
540	423	0	0	0	0
525	423	0	0	0	0
542	430	0	0	0	0
524	415	0	0	0	0
547	423	0	0	0	0
527	415	0	0	0	0
556	419	0	0	0	0
527	415	0	0	0	0
537	403	0	0	0	0
529	403	0	0	0	0
543	412	0	0	0	0
524	403	0	0	0	0
548	412	0	0	0	0
527	408	0	0	0	0
548	412	0	0	0	0
536	419	0	0	0	0
556	419	0	0	0	0
521	423	0	0	0	0
551	415	0	0	0	0
536	419	0	0	0	0
539	419	0	0	0	0
531	409	0	0	0	0
548	415	0	0	0	0
539	424	0	0	0	0
550	415	0	0	0	0
536	423	0	0	0	0
551	435	0	0	0	0
537	476	0	0	0	0
545	511	0	0	0	0
531	494	0	0	0	0
568	515	0	0	0	0
537	476	0	0	0	0
567	476	0	0	0	0
556	464	0	0	0	0
551	415	0	0	0	0
528	396	0	0	0	0
543	391	0	0	0	0
525	379	0	0	0	0
544	391	0	0	0	0
527	391	0	0	0	0
536	391	0	0	0	0
531	435	0	0	0	0
571	504	0	0	0	0
582	590	0	0	0	0
625	493	0	0	0	0
580	38	0	0	0	0
531	7	0	0	0	0
480	31	0	0	0	0
511	221	0	0	0	0
519	371	0	0	0	0
551	451	0	0	0	0
524	455	0	0	0	0
558	472	0	0	0	0
539	472	0	0	0	0
550	480	0	0	0	0
532	484	0	0	0	0
551	483	0	0	0	0
541	488	0	0	0	0
561	503	0	0	0	0
537	507	0	0	0	0
556	503	0	0	0	0
539	504	0	0	0	0
566	514	0	0	0	0
536	519	0	0	0	0
563	527	0	0	0	0
550	534	0	0	0	0
577	552	0	0	0	0
572	566	0	0	0	0
593	582	0	0	0	0
575	588	0	0	0	0
604	600	0	0	0	0
592	603	0	0	0	0
603	603	0	0	0	0
582	585	0	0	0	0
595	568	0	0	0	0
551	537	0	0	0	0
567	502	0	0	0	0
537	472	0	0	0	0
550	448	0	0	0	0
531	429	0	0	0	0
542	416	0	0	0	0
521	408	0	0	0	0
540	408	0	0	0	0
527	406	0	0	0	0
540	408	0	0	0	0
532	412	0	0	0	0
545	419	0	0	0	0
515	415	0	0	0	0
551	414	0	0	0	0
532	427	0	0	0	0
539	431	0	0	0	0
529	428	0	0	0	0
545	433	0	0	0	0
519	435	0	0	0	0
537	433	0	0	0	0
525	428	0	0	0	0
536	431	0	0	0	0
523	429	0	0	0	0
537	435	0	0	0	0
531	440	0	0	0	0
540	435	0	0	0	0
528	432	0	0	0	0
542	432	0	0	0	0
529	427	0	0	0	0
551	435	0	0	0	0
518	425	0	0	0	0
543	440	0	0	0	0
536	433	0	0	0	0
536	435	0	0	0	0
531	432	0	0	0	0
542	430	0	0	0	0
524	433	0	0	0	0
547	440	0	0	0	0
534	440	0	0	0	0
536	435	0	0	0	0
532	432	0	0	0	0
544	439	0	0	0	0
527	435	0	0	0	0
544	435	0	0	0	0
536	476	0	0	0	0
543	499	0	0	0	0
524	507	0	0	0	0
550	526	0	0	0	0
537	491	0	0	0	0
560	494	0	0	0	0
543	476	0	0	0	0
551	440	0	0	0	0
532	425	0	0	0	0
545	428	0	0	0	0
524	419	0	0	0	0
539	417	0	0	0	0
524	414	0	0	0	0
539	428	0	0	0	0
536	476	0	0	0	0
566	527	0	0	0	0
593	583	0	0	0	0
655	440	0	0	0	0
567	85	0	0	0	0
530	78	0	0	0	0
486	94	0	0	0	0
527	255	0	0	0	0
527	361	0	0	0	0
543	454	0	0	0	0
539	475	0	0	0	0
551	480	0	0	0	0
540	483	0	0	0	0
550	493	0	0	0	0
537	499	0	0	0	0
551	510	0	0	0	0
544	504	0	0	0	0
545	508	0	0	0	0
548	512	0	0	0	0
571	519	0	0	0	0
540	527	0	0	0	0
558	527	0	0	0	0
550	540	0	0	0	0
560	547	0	0	0	0
552	556	0	0	0	0
575	574	0	0	0	0
575	583	0	0	0	0
600	604	0	0	0	0
572	615	0	0	0	0
595	624	0	0	0	0
590	625	0	0	0	0
595	625	0	0	0	0
577	609	0	0	0	0
593	591	0	0	0	0
560	568	0	0	0	0
564	529	0	0	0	0
536	504	0	0	0	0
541	483	0	0	0	0
521	454	0	0	0	0
532	448	0	0	0	0
519	432	0	0	0	0
542	440	0	0	0	0
535	435	0	0	0	0
540	433	0	0	0	0
532	435	0	0	0	0
547	443	0	0	0	0
529	441	0	0	0	0
547	448	0	0	0	0
525	448	0	0	0	0
543	457	0	0	0	0
540	465	0	0	0	0
543	471	0	0	0	0
531	455	0	0	0	0
547	460	0	0	0	0
526	455	0	0	0	0
540	451	0	0	0	0
527	435	0	0	0	0
543	431	0	0	0	0
539	432	0	0	0	0
545	423	0	0	0	0
540	423	0	0	0	0
550	430	0	0	0	0
527	423	0	0	0	0
545	423	0	0	0	0
524	428	0	0	0	0
553	440	0	0	0	0
538	432	0	0	0	0
542	424	0	0	0	0
531	425	0	0	0	0
551	428	0	0	0	0
538	420	0	0	0	0
550	423	0	0	0	0
536	423	0	0	0	0
547	438	0	0	0	0
531	459	0	0	0	0
559	497	0	0	0	0
541	494	0	0	0	0
560	524	0	0	0	0
544	489	0	0	0	0
561	492	0	0	0	0
553	487	0	0	0	0
556	449	0	0	0	0
531	417	0	0	0	0
543	417	0	0	0	0
529	415	0	0	0	0
555	419	0	0	0	0
531	425	0	0	0	0
540	423	0	0	0	0
547	452	0	0	0	0
551	513	0	0	0	0
561	560	0	0	0	0
636	551	0	0	0	0
600	155	0	0	0	0
553	43	0	0	0	0
488	46	0	0	0	0
515	175	0	0	0	0
512	310	0	0	0	0
551	427	0	0	0	0
521	455	0	0	0	0
551	465	0	0	0	0
543	478	0	0	0	0
554	483	0	0	0	0
527	483	0	0	0	0
551	476	0	0	0	0
534	472	0	0	0	0
560	484	0	0	0	0
543	487	0	0	0	0
559	496	0	0	0	0
543	504	0	0	0	0
558	504	0	0	0	0
551	513	0	0	0	0
564	536	0	0	0	0
543	527	0	0	0	0
587	556	0	0	0	0
562	568	0	0	0	0
595	583	0	0	0	0
583	595	0	0	0	0
608	617	0	0	0	0
579	623	0	0	0	0
593	622	0	0	0	0
591	619	0	0	0	0
600	607	0	0	0	0
550	568	0	0	0	0
556	531	0	0	0	0
540	487	0	0	0	0
556	462	0	0	0	0
526	441	0	0	0	0
542	428	0	0	0	0
527	423	0	0	0	0
547	427	0	0	0	0
527	423	0	0	0	0
536	428	0	0	0	0
521	432	0	0	0	0
560	449	0	0	0	0
525	444	0	0	0	0
551	451	0	0	0	0
543	457	0	0	0	0
552	460	0	0	0	0
532	460	0	0	0	0
540	451	0	0	0	0
534	453	0	0	0	0
543	457	0	0	0	0
529	446	0	0	0	0
543	451	0	0	0	0
540	451	0	0	0	0
543	457	0	0	0	0
524	446	0	0	0	0
550	451	0	0	0	0
529	454	0	0	0	0
540	449	0	0	0	0
531	441	0	0	0	0
553	444	0	0	0	0
529	438	0	0	0	0
551	440	0	0	0	0
524	427	0	0	0	0
547	428	0	0	0	0
531	428	0	0	0	0
540	423	0	0	0	0
532	423	0	0	0	0
552	428	0	0	0	0
531	415	0	0	0	0
550	430	0	0	0	0
526	423	0	0	0	0
537	427	0	0	0	0
532	432	0	0	0	0
551	438	0	0	0	0
536	460	0	0	0	0
551	499	0	0	0	0
534	499	0	0	0	0
562	515	0	0	0	0
543	489	0	0	0	0
558	480	0	0	0	0
547	468	0	0	0	0
561	436	0	0	0	0
536	391	0	0	0	0
548	390	0	0	0	0
535	380	0	0	0	0
541	382	0	0	0	0
519	387	0	0	0	0
542	384	0	0	0	0
529	403	0	0	0	0
556	473	0	0	0	0
551	540	0	0	0	0
614	590	0	0	0	0
606	199	0	0	0	0
560	1	0	0	0	0
476	1	0	0	0	0
511	96	0	0	0	0
513	307	0	0	0	0
542	393	0	0	0	0
524	435	0	0	0	0
547	446	0	0	0	0
531	446	0	0	0	0
556	455	0	0	0	0
534	462	0	0	0	0
551	463	0	0	0	0
545	467	0	0	0	0
551	475	0	0	0	0
535	468	0	0	0	0
563	487	0	0	0	0
536	492	0	0	0	0
559	495	0	0	0	0
545	505	0	0	0	0
558	508	0	0	0	0
551	515	0	0	0	0
563	540	0	0	0	0
568	558	0	0	0	0
608	582	0	0	0	0
582	588	0	0	0	0
608	601	0	0	0	0
583	600	0	0	0	0
601	600	0	0	0	0
580	588	0	0	0	0
592	571	0	0	0	0
572	543	0	0	0	0
566	513	0	0	0	0
541	467	0	0	0	0
556	454	0	0	0	0
524	441	0	0	0	0
536	425	0	0	0	0
523	422	0	0	0	0
543	423	0	0	0	0
519	415	0	0	0	0
546	419	0	0	0	0
529	415	0	0	0	0
543	420	0	0	0	0
526	412	0	0	0	0
550	415	0	0	0	0
536	427	0	0	0	0
543	432	0	0	0	0
527	430	0	0	0	0
542	423	0	0	0	0
519	428	0	0	0	0
547	428	0	0	0	0
523	423	0	0	0	0
540	428	0	0	0	0
526	428	0	0	0	0
544	432	0	0	0	0
528	430	0	0	0	0
536	430	0	0	0	0
512	414	0	0	0	0
545	423	0	0	0	0
531	422	0	0	0	0
541	432	0	0	0	0
521	435	0	0	0	0
545	441	0	0	0	0
527	440	0	0	0	0
544	441	0	0	0	0
536	448	0	0	0	0
537	446	0	0	0	0
534	446	0	0	0	0
543	448	0	0	0	0
524	441	0	0	0	0
555	448	0	0	0	0
524	443	0	0	0	0
551	448	0	0	0	0
531	477	0	0	0	0
551	502	0	0	0	0
550	524	0	0	0	0
535	537	0	0	0	0
524	496	0	0	0	0
553	505	0	0	0	0
548	492	0	0	0	0
555	462	0	0	0	0
526	436	0	0	0	0
540	434	0	0	0	0
521	432	0	0	0	0
543	435	0	0	0	0
527	433	0	0	0	0
543	443	0	0	0	0
531	483	0	0	0	0
563	540	0	0	0	0
590	595	0	0	0	0
641	537	0	0	0	0
579	167	0	0	0	0
529	100	0	0	0	0
480	91	0	0	0	0
515	241	0	0	0	0
516	364	0	0	0	0
536	473	0	0	0	0
536	511	0	0	0	0
551	516	0	0	0	0
543	529	0	0	0	0
547	526	0	0	0	0
540	524	0	0	0	0
553	547	0	0	0	0
536	534	0	0	0	0
551	543	0	0	0	0
532	540	0	0	0	0
555	536	0	0	0	0
543	542	0	0	0	0
555	555	0	0	0	0
547	560	0	0	0	0
564	573	0	0	0	0
551	583	0	0	0	0
587	593	0	0	0	0
563	611	0	0	0	0
582	615	0	0	0	0
582	628	0	0	0	0
600	643	0	0	0	0
582	646	0	0	0	0
600	647	0	0	0	0
572	632	0	0	0	0
595	617	0	0	0	0
556	595	0	0	0	0
550	563	0	0	0	0
536	521	0	0	0	0
543	499	0	0	0	0
519	475	0	0	0	0
536	472	0	0	0	0
520	455	0	0	0	0
545	455	0	0	0	0
521	448	0	0	0	0
540	447	0	0	0	0
527	455	0	0	0	0
539	467	0	0	0	0
528	452	0	0	0	0
546	460	0	0	0	0
534	462	0	0	0	0
545	455	0	0	0	0
527	463	0	0	0	0
548	468	0	0	0	0
527	460	0	0	0	0
535	468	0	0	0	0
534	472	0	0	0	0
543	472	0	0	0	0
526	465	0	0	0	0
540	463	0	0	0	0
527	455	0	0	0	0
551	459	0	0	0	0
534	460	0	0	0	0
556	455	0	0	0	0
529	455	0	0	0	0
536	449	0	0	0	0
532	449	0	0	0	0
537	455	0	0	0	0
534	451	0	0	0	0
558	448	0	0	0	0
537	451	0	0	0	0
546	453	0	0	0	0
527	443	0	0	0	0
556	451	0	0	0	0
529	449	0	0	0	0
541	454	0	0	0	0
534	455	0	0	0	0
550	498	0	0	0	0
542	524	0	0	0	0
558	520	0	0	0	0
536	534	0	0	0	0
559	507	0	0	0	0
537	508	0	0	0	0
568	496	0	0	0	0
551	461	0	0	0	0
543	440	0	0	0	0
521	423	0	0	0	0
555	425	0	0	0	0
540	414	0	0	0	0
547	412	0	0	0	0
529	415	0	0	0	0
543	448	0	0	0	0
545	502	0	0	0	0
595	577	0	0	0	0
613	515	0	0	0	0
617	87	0	0	0	0
531	28	0	0	0	0
501	39	0	0	0	0
508	192	0	0	0	0
531	351	0	0	0	0
531	444	0	0	0	0
557	479	0	0	0	0
536	481	0	0	0	0
553	476	0	0	0	0
539	491	0	0	0	0
548	483	0	0	0	0
536	483	0	0	0	0
558	487	0	0	0	0
529	487	0	0	0	0
553	504	0	0	0	0
545	497	0	0	0	0
555	505	0	0	0	0
542	512	0	0	0	0
560	519	0	0	0	0
551	531	0	0	0	0
564	543	0	0	0	0
556	566	0	0	0	0
590	596	0	0	0	0
572	601	0	0	0	0
596	611	0	0	0	0
575	614	0	0	0	0
607	624	0	0	0	0
590	620	0	0	0	0
601	608	0	0	0	0
560	579	0	0	0	0
568	547	0	0	0	0
540	510	0	0	0	0
551	491	0	0	0	0
529	464	0	0	0	0
540	446	0	0	0	0
520	430	0	0	0	0
551	430	0	0	0	0
524	428	0	0	0	0
534	423	0	0	0	0
515	419	0	0	0	0
550	428	0	0	0	0
529	440	0	0	0	0
539	423	0	0	0	0
519	435	0	0	0	0
547	443	0	0	0	0
535	438	0	0	0	0
551	440	0	0	0	0
516	433	0	0	0	0
551	431	0	0	0	0
527	433	0	0	0	0
544	431	0	0	0	0
527	428	0	0	0	0
540	435	0	0	0	0
529	428	0	0	0	0
540	431	0	0	0	0
536	425	0	0	0	0
547	425	0	0	0	0
531	418	0	0	0	0
553	432	0	0	0	0
519	415	0	0	0	0
559	423	0	0	0	0
519	423	0	0	0	0
555	425	0	0	0	0
537	423	0	0	0	0
551	427	0	0	0	0
536	422	0	0	0	0
558	419	0	0	0	0
532	434	0	0	0	0
548	423	0	0	0	0
537	432	0	0	0	0
556	431	0	0	0	0
531	432	0	0	0	0
547	435	0	0	0	0
534	430	0	0	0	0
561	441	0	0	0	0
536	435	0	0	0	0
543	435	0	0	0	0
536	438	0	0	0	0
560	446	0	0	0	0
556	487	0	0	0	0
556	516	0	0	0	0
536	509	0	0	0	0
563	531	0	0	0	0
543	499	0	0	0	0
563	491	0	0	0	0
553	480	0	0	0	0
560	448	0	0	0	0
519	418	0	0	0	0
551	408	0	0	0	0
536	406	0	0	0	0
551	412	0	0	0	0
529	403	0	0	0	0
545	404	0	0	0	0
529	444	0	0	0	0
575	508	0	0	0	0
569	599	0	0	0	0
624	530	0	0	0	0
584	84	0	0	0	0
532	17	0	0	0	0
479	22	0	0	0	0
519	199	0	0	0	0
521	353	0	0	0	0
551	448	0	0	0	0
536	463	0	0	0	0
551	472	0	0	0	0
534	476	0	0	0	0
555	481	0	0	0	0
542	487	0	0	0	0
560	496	0	0	0	0
534	487	0	0	0	0
550	496	0	0	0	0
542	507	0	0	0	0
560	516	0	0	0	0
536	519	0	0	0	0
560	529	0	0	0	0
551	531	0	0	0	0
561	551	0	0	0	0
547	560	0	0	0	0
579	572	0	0	0	0
572	591	0	0	0	0
585	608	0	0	0	0
588	609	0	0	0	0
601	616	0	0	0	0
583	614	0	0	0	0
608	615	0	0	0	0
579	603	0	0	0	0
590	588	0	0	0	0
560	551	0	0	0	0
556	519	0	0	0	0
551	492	0	0	0	0
550	460	0	0	0	0
515	435	0	0	0	0
536	428	0	0	0	0
524	417	0	0	0	0
543	417	0	0	0	0
519	409	0	0	0	0
542	415	0	0	0	0
526	415	0	0	0	0
539	419	0	0	0	0
523	412	0	0	0	0
553	425	0	0	0	0
531	433	0	0	0	0
543	425	0	0	0	0
534	427	0	0	0	0
539	425	0	0	0	0
511	422	0	0	0	0
550	423	0	0	0	0
527	422	0	0	0	0
537	425	0	0	0	0
536	423	0	0	0	0
544	423	0	0	0	0
528	417	0	0	0	0
547	422	0	0	0	0
529	417	0	0	0	0
551	419	0	0	0	0
529	419	0	0	0	0
547	415	0	0	0	0
534	415	0	0	0	0
551	419	0	0	0	0
536	415	0	0	0	0
551	417	0	0	0	0
531	417	0	0	0	0
550	422	0	0	0	0
540	422	0	0	0	0
552	428	0	0	0	0
532	425	0	0	0	0
553	430	0	0	0	0
535	428	0	0	0	0
551	428	0	0	0	0
536	428	0	0	0	0
555	435	0	0	0	0
536	438	0	0	0	0
555	448	0	0	0	0
537	444	0	0	0	0
552	430	0	0	0	0
542	443	0	0	0	0
555	483	0	0	0	0
543	504	0	0	0	0
561	524	0	0	0	0
547	527	0	0	0	0
568	500	0	0	0	0
551	491	0	0	0	0
574	487	0	0	0	0
543	455	0	0	0	0
545	444	0	0	0	0
532	454	0	0	0	0
553	460	0	0	0	0
539	463	0	0	0	0
551	467	0	0	0	0
542	483	0	0	0	0
563	542	0	0	0	0
563	587	0	0	0	0
623	647	0	0	0	0
643	451	0	0	0	0
606	140	0	0	0	0
513	115	0	0	0	0
511	144	0	0	0	0
515	312	0	0	0	0
536	420	0	0	0	0
543	513	0	0	0	0
551	540	0	0	0	0
537	533	0	0	0	0
546	537	0	0	0	0
543	537	0	0	0	0
553	549	0	0	0	0
551	543	0	0	0	0
558	541	0	0	0	0
560	547	0	0	0	0
567	556	0	0	0	0
556	552	0	0	0	0
563	557	0	0	0	0
560	575	0	0	0	0
577	593	0	0	0	0
577	606	0	0	0	0
579	628	0	0	0	0
578	636	0	0	0	0
595	668	0	0	0	0
611	707	0	0	0	0
614	721	0	0	0	0
600	721	0	0	0	0
600	716	0	0	0	0
595	705	0	0	0	0
604	700	0	0	0	0
587	657	0	0	0	0
575	630	0	0	0	0
560	583	0	0	0	0
560	543	0	0	0	0
551	512	0	0	0	0
531	499	0	0	0	0
553	492	0	0	0	0
543	568	0	0	0	0
539	759	0	0	0	0
540	985	0	0	0	0
537	740	0	0	0	0
545	775	0	0	0	0
547	719	0	0	0	0
550	659	0	0	0	0
543	646	0	0	0	0
562	630	0	0	0	0
547	603	0	0	0	0
536	583	0	0	0	0
523	543	0	0	0	0
531	536	0	0	0	0
525	519	0	0	0	0
523	502	0	0	0	0
523	498	0	0	0	0
529	496	0	0	0	0
537	499	0	0	0	0
536	529	0	0	0	0
536	516	0	0	0	0
559	511	0	0	0	0
550	499	0	0	0	0
537	466	0	0	0	0
536	423	0	0	0	0
535	415	0	0	0	0
532	402	0	0	0	0
539	387	0	0	0	0
528	380	0	0	0	0
543	345	0	0	0	0
532	335	0	0	0	0
536	307	0	0	0	0
527	283	0	0	0	0
540	304	0	0	0	0
521	295	0	0	0	0
536	312	0	0	0	0
539	324	0	0	0	0
543	326	0	0	0	0
537	344	0	0	0	0
551	391	0	0	0	0
536	429	0	0	0	0
551	448	0	0	0	0
547	462	0	0	0	0
563	460	0	0	0	0
556	455	0	0	0	0
575	435	0	0	0	0
566	396	0	0	0	0
564	375	0	0	0	0
546	355	0	0	0	0
556	359	0	0	0	0
543	355	0	0	0	0
547	350	0	0	0	0
527	355	0	0	0	0
539	390	0	0	0	0
534	416	0	0	0	0
565	486	0	0	0	0
596	495	0	0	0	0
627	59	0	0	0	0
551	1	0	0	0	0
511	1	0	0	0	0
500	1	0	0	0	0
534	71	0	0	0	0
521	355	0	0	0	0
527	327	0	0	0	0
516	353	0	0	0	0
535	387	0	0	0	0
524	387	0	0	0	0
540	380	0	0	0	0
539	359	0	0	0	0
536	355	0	0	0	0
504	384	0	0	0	0
527	392	0	0	0	0
527	455	0	0	0	0
544	486	0	0	0	0
534	470	0	0	0	0
536	486	0	0	0	0
529	505	0	0	0	0
544	473	0	0	0	0
558	468	0	0	0	0
609	519	0	0	0	0
639	539	0	0	0	0
671	550	0	0	0	0
651	603	0	0	0	0
649	647	0	0	0	0
612	600	0	0	0	0
599	588	0	0	0	0
568	588	0	0	0	0
555	563	0	0	0	0
519	531	0	0	0	0
521	508	0	0	0	0
504	487	0	0	0	0
534	467	0	0	0	0
543	428	0	0	0	0
563	399	0	0	0	0
546	371	0	0	0	0
550	348	0	0	0	0
527	345	0	0	0	0
526	357	0	0	0	0
515	358	0	0	0	0
515	327	0	0	0	0
504	305	0	0	0	0
518	315	0	0	0	0
515	303	0	0	0	0
519	304	0	0	0	0
508	352	0	0	0	0
524	401	0	0	0	0
525	414	0	0	0	0
551	415	0	0	0	0
547	415	0	0	0	0
556	409	0	0	0	0
540	385	0	0	0	0
528	368	0	0	0	0
497	361	0	0	0	0
487	358	0	0	0	0
467	355	0	0	0	0
484	352	0	0	0	0
487	339	0	0	0	0
515	335	0	0	0	0
524	319	0	0	0	0
552	295	0	0	0	0
560	268	0	0	0	0
572	252	0	0	0	0
566	231	0	0	0	0
572	216	0	0	0	0
553	202	0	0	0	0
561	207	0	0	0	0
543	211	0	0	0	0
545	216	0	0	0	0
534	231	0	0	0	0
534	246	0	0	0	0
523	259	0	0	0	0
536	275	0	0	0	0
519	281	0	0	0	0
532	295	0	0	0	0
521	310	0	0	0	0
531	351	0	0	0	0
519	384	0	0	0	0
528	396	0	0	0	0
528	422	0	0	0	0
537	391	0	0	0	0
534	390	0	0	0	0
553	393	0	0	0	0
536	368	0	0	0	0
534	356	0	0	0	0
524	353	0	0	0	0
536	354	0	0	0	0
531	359	0	0	0	0
543	372	0	0	0	0
531	377	0	0	0	0
545	419	0	0	0	0
556	484	0	0	0	0
591	572	0	0	0	0
632	503	0	0	0	0
620	73	0	0	0	0
531	4	0	0	0	0
496	20	0	0	0	0
495	188	0	0	0	0
515	334	0	0	0	0
512	432	0	0	0	0
519	455	0	0	0	0
513	455	0	0	0	0
531	472	0	0	0	0
527	463	0	0	0	0
543	467	0	0	0	0
537	481	0	0	0	0
551	487	0	0	0	0
545	497	0	0	0	0
556	513	0	0	0	0
551	519	0	0	0	0
558	531	0	0	0	0
553	535	0	0	0	0
563	543	0	0	0	0
563	560	0	0	0	0
574	575	0	0	0	0
575	583	0	0	0	0
591	611	0	0	0	0
583	620	0	0	0	0
598	632	0	0	0	0
588	647	0	0	0	0
602	649	0	0	0	0
587	639	0	0	0	0
583	628	0	0	0	0
568	604	0	0	0	0
563	574	0	0	0	0
540	529	0	0	0	0
544	499	0	0	0	0
538	475	0	0	0	0
537	459	0	0	0	0
531	444	0	0	0	0
540	444	0	0	0	0
530	440	0	0	0	0
540	435	0	0	0	0
529	435	0	0	0	0
539	444	0	0	0	0
524	441	0	0	0	0
527	444	0	0	0	0
521	444	0	0	0	0
531	447	0	0	0	0
523	448	0	0	0	0
534	451	0	0	0	0
524	445	0	0	0	0
536	444	0	0	0	0
529	449	0	0	0	0
539	455	0	0	0	0
530	451	0	0	0	0
542	460	0	0	0	0
531	455	0	0	0	0
540	459	0	0	0	0
526	449	0	0	0	0
537	451	0	0	0	0
534	451	0	0	0	0
537	451	0	0	0	0
540	449	0	0	0	0
547	455	0	0	0	0
539	454	0	0	0	0
547	451	0	0	0	0
543	448	0	0	0	0
544	454	0	0	0	0
539	459	0	0	0	0
543	462	0	0	0	0
532	460	0	0	0	0
537	463	0	0	0	0
531	467	0	0	0	0
543	484	0	0	0	0
534	518	0	0	0	0
545	537	0	0	0	0
542	543	0	0	0	0
551	566	0	0	0	0
547	539	0	0	0	0
559	524	0	0	0	0
551	494	0	0	0	0
553	472	0	0	0	0
536	455	0	0	0	0
547	441	0	0	0	0
539	444	0	0	0	0
539	443	0	0	0	0
535	435	0	0	0	0
545	452	0	0	0	0
540	503	0	0	0	0
566	558	0	0	0	0
601	612	0	0	0	0
652	463	0	0	0	0
591	108	0	0	0	0
530	88	0	0	0	0
472	92	0	0	0	0
519	262	0	0	0	0
541	377	0	0	0	0
551	476	0	0	0	0
529	527	0	0	0	0
542	535	0	0	0	0
547	543	0	0	0	0
575	553	0	0	0	0
563	545	0	0	0	0
568	550	0	0	0	0
543	536	0	0	0	0
551	530	0	0	0	0
537	536	0	0	0	0
543	551	0	0	0	0
531	561	0	0	0	0
543	574	0	0	0	0
536	588	0	0	0	0
558	585	0	0	0	0
571	551	0	0	0	0
608	574	0	0	0	0
606	612	0	0	0	0
601	644	0	0	0	0
582	655	0	0	0	0
596	679	0	0	0	0
594	691	0	0	0	0
603	676	0	0	0	0
583	628	0	0	0	0
572	591	0	0	0	0
539	547	0	0	0	0
537	510	0	0	0	0
526	471	0	0	0	0
533	455	0	0	0	0
527	444	0	0	0	0
527	440	0	0	0	0
527	441	0	0	0	0
536	441	0	0	0	0
536	447	0	0	0	0
559	451	0	0	0	0
545	455	0	0	0	0
539	467	0	0	0	0
518	451	0	0	0	0
520	439	0	0	0	0
507	430	0	0	0	0
515	431	0	0	0	0
499	423	0	0	0	0
509	430	0	0	0	0
508	435	0	0	0	0
523	446	0	0	0	0
527	452	0	0	0	0
542	457	0	0	0	0
543	465	0	0	0	0
548	465	0	0	0	0
539	455	0	0	0	0
548	454	0	0	0	0
526	447	0	0	0	0
530	444	0	0	0	0
520	440	0	0	0	0
531	440	0	0	0	0
518	432	0	0	0	0
527	430	0	0	0	0
527	432	0	0	0	0
539	435	0	0	0	0
529	432	0	0	0	0
539	432	0	0	0	0
536	431	0	0	0	0
549	431	0	0	0	0
541	425	0	0	0	0
545	423	0	0	0	0
535	428	0	0	0	0
541	443	0	0	0	0
531	472	0	0	0	0
536	511	0	0	0	0
529	518	0	0	0	0
543	537	0	0	0	0
531	508	0	0	0	0
547	504	0	0	0	0
547	487	0	0	0	0
551	451	0	0	0	0
531	415	0	0	0	0
536	406	0	0	0	0
527	398	0	0	0	0
539	395	0	0	0	0
526	391	0	0	0	0
536	399	0	0	0	0
534	430	0	0	0	0
551	497	0	0	0	0
566	572	0	0	0	0
620	566	0	0	0	0
598	128	0	0	0	0
543	16	0	0	0	0
480	19	0	0	0	0
499	183	0	0	0	0
516	368	0	0	0	0
536	496	0	0	0	0
532	540	0	0	0	0
543	575	0	0	0	0
542	566	0	0	0	0
551	556	0	0	0	0
537	551	0	0	0	0
550	539	0	0	0	0
540	528	0	0	0	0
550	539	0	0	0	0
542	557	0	0	0	0
551	560	0	0	0	0
545	547	0	0	0	0
556	558	0	0	0	0
551	574	0	0	0	0
568	582	0	0	0	0
560	580	0	0	0	0
575	590	0	0	0	0
579	598	0	0	0	0
591	611	0	0	0	0
585	627	0	0	0	0
600	615	0	0	0	0
591	615	0	0	0	0
606	628	0	0	0	0
585	606	0	0	0	0
583	583	0	0	0	0
561	551	0	0	0	0
554	523	0	0	0	0
536	489	0	0	0	0
542	470	0	0	0	0
526	449	0	0	0	0
531	435	0	0	0	0
524	423	0	0	0	0
534	417	0	0	0	0
527	403	0	0	0	0
536	406	0	0	0	0
527	417	0	0	0	0
534	419	0	0	0	0
524	401	0	0	0	0
535	383	0	0	0	0
524	370	0	0	0	0
534	367	0	0	0	0
527	352	0	0	0	0
534	343	0	0	0	0
524	342	0	0	0	0
535	344	0	0	0	0
526	344	0	0	0	0
536	352	0	0	0	0
529	350	0	0	0	0
540	353	0	0	0	0
527	355	0	0	0	0
537	361	0	0	0	0
532	364	0	0	0	0
540	369	0	0	0	0
527	368	0	0	0	0
542	374	0	0	0	0
534	376	0	0	0	0
536	380	0	0	0	0
531	382	0	0	0	0
540	387	0	0	0	0
534	387	0	0	0	0
545	388	0	0	0	0
535	391	0	0	0	0
543	395	0	0	0	0
539	395	0	0	0	0
543	399	0	0	0	0
531	398	0	0	0	0
540	396	0	0	0	0
531	393	0	0	0	0
540	400	0	0	0	0
536	404	0	0	0	0
539	408	0	0	0	0
531	401	0	0	0	0
550	412	0	0	0	0
542	420	0	0	0	0
547	463	0	0	0	0
543	486	0	0	0	0
551	493	0	0	0	0
543	489	0	0	0	0
551	463	0	0	0	0
547	465	0	0	0	0
558	441	0	0	0	0
536	406	0	0	0	0
534	392	0	0	0	0
527	385	0	0	0	0
539	386	0	0	0	0
534	385	0	0	0	0
539	387	0	0	0	0
534	398	0	0	0	0
548	449	0	0	0	0
553	515	0	0	0	0
595	600	0	0	0	0
617	390	0	0	0	0
586	2	0	0	0	0
508	1	0	0	0	0
497	40	0	0	0	0
508	248	0	0	0	0
536	375	0	0	0	0
552	448	0	0	0	0
609	485	0	0	0	0
615	526	0	0	0	0
607	515	0	0	0	0
639	527	0	0	0	0
560	505	0	0	0	0
464	391	0	0	0	0
502	351	0	0	0	0
542	308	0	0	0	0
654	286	0	0	0	0
799	440	0	0	0	0
539	350	0	0	0	0
532	543	0	0	0	0
580	847	0	0	0	0
569	860	0	0	0	0
606	878	0	0	0	0
595	863	0	0	0	0
614	851	0	0	0	0
627	836	0	0	0	0
630	801	0	0	0	0
636	796	0	0	0	0
572	739	0	0	0	0
572	653	0	0	0	0
575	595	0	0	0	0
534	543	0	0	0	0
534	499	0	0	0	0
518	422	0	0	0	0
492	363	0	0	0	0
494	319	0	0	0	0
542	280	0	0	0	0
568	268	0	0	0	0
503	222	0	0	0	0
462	148	0	0	0	0
464	201	0	0	0	0
452	291	0	0	0	0
480	483	0	0	0	0
502	668	0	0	0	0
527	673	0	0	0	0
483	728	0	0	0	0
536	739	0	0	0	0
627	836	0	0	0	0
555	833	0	0	0	0
550	736	0	0	0	0
608	739	0	0	0	0
609	723	0	0	0	0
620	707	0	0	0	0
649	688	0	0	0	0
696	671	0	0	0	0
537	665	0	0	0	0
504	551	0	0	0	0
564	639	0	0	0	0
489	609	0	0	0	0
401	600	0	0	0	0
313	631	0	0	0	0
467	643	0	0	0	0
622	659	0	0	0	0
578	636	0	0	0	0
552	624	0	0	0	0
611	624	0	0	0	0
668	604	0	0	0	0
647	575	0	0	0	0
675	547	0	0	0	0
793	593	0	0	0	0
748	582	0	0	0	0
739	527	0	0	0	0
719	527	0	0	0	0
730	534	0	0	0	0
723	572	0	0	0	0
684	575	0	0	0	0
644	577	0	0	0	0
607	595	0	0	0	0
591	556	0	0	0	0
560	571	0	0	0	0
543	553	0	0	0	0
511	541	0	0	0	0
465	481	0	0	0	0
240	477	0	0	0	0
222	380	0	0	0	0
408	427	0	0	0	0
380	432	0	0	0	0
391	364	0	0	0	0
438	480	0	0	0	0
335	531	0	0	0	0
403	492	0	0	0	0
500	251	0	0	0	0
515	1	0	0	0	0
391	1	0	0	0	0
408	1	0	0	0	0
459	208	0	0	0	0
486	384	0	0	0	0
492	427	0	0	0	0
519	508	0	0	0	0
539	515	0	0	0	0
536	489	0	0	0	0
591	520	0	0	0	0
702	615	0	0	0	0
604	575	0	0	0	0
591	548	0	0	0	0
631	518	0	0	0	0
641	492	0	0	0	0
673	444	0	0	0	0
824	435	0	0	0	0
991	616	0	0	0	0
910	839	0	0	0	0
815	892	0	0	0	0
814	1016	0	0	0	0
809	1019	0	0	0	0
792	1019	0	0	0	0
750	1019	0	0	0	0
591	1019	0	0	0	0
688	1019	0	0	0	0
708	1019	0	0	0	0
700	1019	0	0	0	0
716	1019	0	0	0	0
613	1019	0	0	0	0
643	1018	0	0	0	0
671	857	0	0	0	0
693	824	0	0	0	0
636	750	0	0	0	0
662	653	0	0	0	0
723	684	0	0	0	0
679	632	0	0	0	0
671	607	0	0	0	0
630	558	0	0	0	0
607	524	0	0	0	0
622	527	0	0	0	0
683	582	0	0	0	0
585	531	0	0	0	0
530	478	0	0	0	0
579	467	0	0	0	0
568	476	0	0	0	0
480	523	0	0	0	0
359	403	0	0	0	0
419	408	0	0	0	0
475	427	0	0	0	0
492	412	0	0	0	0
504	414	0	0	0	0
543	387	0	0	0	0
582	419	0	0	0	0
535	398	0	0	0	0
515	351	0	0	0	0
555	339	0	0	0	0
583	352	0	0	0	0
596	358	0	0	0	0
524	376	0	0	0	0
540	368	0	0	0	0
487	356	0	0	0	0
536	347	0	0	0	0
536	448	0	0	0	0
484	356	0	0	0	0
492	428	0	0	0	0
460	441	0	0	0	0
484	449	0	0	0	0
515	489	0	0	0	0
543	465	0	0	0	0
511	499	0	0	0	0
505	470	0	0	0	0
440	396	0	0	0	0
431	340	0	0	0	0
432	374	0	0	0	0
411	352	0	0	0	0
468	352	0	0	0	0
468	364	0	0	0	0
512	358	0	0	0	0
550	390	0	0	0	0
571	459	0	0	0	0
647	457	0	0	0	0
799	221	0	0	0	0
691	1	0	0	0	0
531	1	0	0	0	0
521	1	0	0	0	0
527	1	0	0	0	0
499	1	0	0	0	0
518	1	0	0	0	0
478	1	0	0	0	0
429	1	0	0	0	0
480	1	0	0	0	0
470	1	0	0	0	0
497	1	0	0	0	0
529	1	0	0	0	0
536	283	0	0	0	0
524	1018	0	0	0	0
542	1019	0	0	0	0
504	1018	0	0	0	0
519	1019	0	0	0	0
496	1018	0	0	0	0
497	1019	0	0	0	0
443	1019	0	0	0	0
473	1019	0	0	0	0
534	1019	0	0	0	0
595	1019	0	0	0	0
550	1019	0	0	0	0
515	1019	0	0	0	0
543	1019	0	0	0	0
588	1019	0	0	0	0
649	1019	0	0	0	0
700	926	0	0	0	0
711	808	0	0	0	0
696	752	0	0	0	0
679	650	0	0	0	0
671	588	0	0	0	0
700	536	0	0	0	0
699	507	0	0	0	0
654	483	0	0	0	0
560	480	0	0	0	0
543	489	0	0	0	0
513	515	0	0	0	0
510	539	0	0	0	0
456	552	0	0	0	0
430	554	0	0	0	0
395	556	0	0	0	0
385	536	0	0	0	0
337	531	0	0	0	0
225	533	0	0	0	0
280	524	0	0	0	0
408	523	0	0	0	0
438	529	0	0	0	0
519	521	0	0	0	0
553	519	0	0	0	0
603	511	0	0	0	0
664	487	0	0	0	0
620	451	0	0	0	0
561	428	0	0	0	0
515	396	0	0	0	0
463	377	0	0	0	0
464	359	0	0	0	0
443	307	0	0	0	0
435	255	0	0	0	0
432	251	0	0	0	0
440	272	0	0	0	0
434	312	0	0	0	0
448	319	0	0	0	0
428	313	0	0	0	0
448	361	0	0	0	0
479	361	0	0	0	0
555	371	0	0	0	0
639	400	0	0	0	0
647	400	0	0	0	0
600	407	0	0	0	0
590	411	0	0	0	0
541	425	0	0	0	0
523	435	0	0	0	0
504	441	0	0	0	0
481	435	0	0	0	0
438	439	0	0	0	0
406	473	0	0	0	0
380	528	0	0	0	0
419	537	0	0	0	0
406	139	0	0	0	0
347	1	0	0	0	0
315	1	0	0	0	0
359	1	0	0	0	0
415	41	0	0	0	0
480	259	0	0	0	0
495	268	0	0	0	0
510	267	0	0	0	0
507	271	0	0	0	0
512	264	0	0	0	0
487	284	0	0	0	0
457	304	0	0	0	0
435	335	0	0	0	0
431	361	0	0	0	0
430	391	0	0	0	0
460	403	0	0	0	0
481	425	0	0	0	0
504	438	0	0	0	0
503	446	0	0	0	0
510	440	0	0	0	0
487	436	0	0	0	0
496	420	0	0	0	0
531	423	0	0	0	0
616	403	0	0	0	0
902	355	0	0	0	0
993	302	0	0	0	0
922	222	0	0	0	0
848	113	0	0	0	0
717	2	0	0	0	0
675	1	0	0	0	0
600	1	0	0	0	0
329	1	0	0	0	0
0	1	0	0	0	0
19	1	0	0	0	0
639	1	0	0	0	0
732	1	0	0	0	0
728	1	0	0	0	0
834	1	0	0	0	0
974	1	0	0	0	0
102	1	0	0	0	0
854	1	0	0	0	0
864	1	0	0	0	0
924	54	0	0	0	0
624	268	0	0	0	0
743	263	0	0	0	0
590	345	0	0	0	0
578	408	0	0	0	0
649	470	0	0	0	0
711	513	0	0	0	0
788	591	0	0	0	0
704	668	0	0	0	0
536	670	0	0	0	0
415	692	0	0	0	0
343	775	0	0	0	0
307	801	0	0	0	0
376	774	0	0	0	0
419	777	0	0	0	0
536	792	0	0	0	0
745	801	0	0	0	0
756	820	0	0	0	0
529	844	0	0	0	0
751	864	0	0	0	0
765	969	0	0	0	0
543	1019	0	0	0	0
547	1019	0	0	0	0
551	1019	0	0	0	0
435	1019	0	0	0	0
0	943	0	0	0	0
0	844	0	0	0	0
0	787	0	0	0	0
0	707	0	0	0	0
0	647	0	0	0	0
81	591	0	0	0	0
209	537	0	0	0	0
190	534	0	0	0	0
332	543	0	0	0	0
399	558	0	0	0	0
412	260	0	0	0	0
367	1	0	0	0	0
321	1	0	0	0	0
333	1	0	0	0	0
391	1	0	0	0	0
435	15	0	0	0	0
467	209	0	0	0	0
473	211	0	0	0	0
475	236	0	0	0	0
480	278	0	0	0	0
511	304	0	0	0	0
467	337	0	0	0	0
478	359	0	0	0	0
508	393	0	0	0	0
511	432	0	0	0	0
515	469	0	0	0	0
527	504	0	0	0	0
532	543	0	0	0	0
553	568	0	0	0	0
585	606	0	0	0	0
625	626	0	0	0	0
652	651	0	0	0	0
700	681	0	0	0	0
755	681	0	0	0	0
718	691	0	0	0	0
611	710	0	0	0	0
792	713	0	0	0	0
102	712	0	0	0	0
856	695	0	0	0	0
545	684	0	0	0	0
501	688	0	0	0	0
609	688	0	0	0	0
548	679	0	0	0	0
510	691	0	0	0	0
535	692	0	0	0	0
529	696	0	0	0	0
551	691	0	0	0	0
555	683	0	0	0	0
583	671	0	0	0	0
616	668	0	0	0	0
652	678	0	0	0	0
679	691	0	0	0	0
711	662	0	0	0	0
705	639	0	0	0	0
700	624	0	0	0	0
679	620	0	0	0	0
664	596	0	0	0	0
615	572	0	0	0	0
571	563	0	0	0	0
536	563	0	0	0	0
524	559	0	0	0	0
504	556	0	0	0	0
483	551	0	0	0	0
462	551	0	0	0	0
467	556	0	0	0	0
475	572	0	0	0	0
494	575	0	0	0	0
494	568	0	0	0	0
513	563	0	0	0	0
528	583	0	0	0	0
527	611	0	0	0	0
512	615	0	0	0	0
512	620	0	0	0	0
504	601	0	0	0	0
508	575	0	0	0	0
519	572	0	0	0	0
535	524	0	0	0	0
524	472	0	0	0	0
519	440	0	0	0	0
513	415	0	0	0	0
508	398	0	0	0	0
497	384	0	0	0	0
498	366	0	0	0	0
492	371	0	0	0	0
503	412	0	0	0	0
521	483	0	0	0	0
591	589	0	0	0	0
632	391	0	0	0	0
611	1	0	0	0	0
536	1	0	0	0	0
515	36	0	0	0	0
531	211	0	0	0	0
574	316	0	0	0	0
566	383	0	0	0	0
583	379	0	0	0	0
587	384	0	0	0	0
588	391	0	0	0	0
557	400	0	0	0	0
571	398	0	0	0	0
555	401	0	0	0	0
560	403	0	0	0	0
558	408	0	0	0	0
574	413	0	0	0	0
575	425	0	0	0	0
592	432	0	0	0	0
584	438	0	0	0	0
608	439	0	0	0	0
615	448	0	0	0	0
627	455	0	0	0	0
617	482	0	0	0	0
629	515	0	0	0	0
619	540	0	0	0	0
627	559	0	0	0	0
623	591	0	0	0	0
624	604	0	0	0	0
608	591	0	0	0	0
603	569	0	0	0	0
583	543	0	0	0	0
588	513	0	0	0	0
572	478	0	0	0	0
568	443	0	0	0	0
551	432	0	0	0	0
556	424	0	0	0	0
542	428	0	0	0	0
542	423	0	0	0	0
534	423	0	0	0	0
540	423	0	0	0	0
540	433	0	0	0	0
548	435	0	0	0	0
540	432	0	0	0	0
555	427	0	0	0	0
551	428	0	0	0	0
551	422	0	0	0	0
537	423	0	0	0	0
555	417	0	0	0	0
561	415	0	0	0	0
556	404	0	0	0	0
560	398	0	0	0	0
569	391	0	0	0	0
560	381	0	0	0	0
556	364	0	0	0	0
560	364	0	0	0	0
573	348	0	0	0	0
571	332	0	0	0	0
585	316	0	0	0	0
583	301	0	0	0	0
596	283	0	0	0	0
588	279	0	0	0	0
582	284	0	0	0	0
563	324	0	0	0	0
564	339	0	0	0	0
556	339	0	0	0	0
566	340	0	0	0	0
551	327	0	0	0	0
553	324	0	0	0	0
551	304	0	0	0	0
551	262	0	0	0	0
539	236	0	0	0	0
551	217	0	0	0	0
536	209	0	0	0	0
545	209	0	0	0	0
537	212	0	0	0	0
537	216	0	0	0	0
534	271	0	0	0	0
546	348	0	0	0	0
568	470	0	0	0	0
620	359	0	0	0	0
598	1	0	0	0	0
531	1	0	0	0	0
497	1	0	0	0	0
517	1	0	0	0	0
536	82	0	0	0	0
550	316	0	0	0	0
543	260	0	0	0	0
558	291	0	0	0	0
556	304	0	0	0	0
564	318	0	0	0	0
563	344	0	0	0	0
572	361	0	0	0	0
566	385	0	0	0	0
560	400	0	0	0	0
564	423	0	0	0	0
579	447	0	0	0	0
569	467	0	0	0	0
569	486	0	0	0	0
563	506	0	0	0	0
572	523	0	0	0	0
582	543	0	0	0	0
593	560	0	0	0	0
600	582	0	0	0	0
607	605	0	0	0	0
609	627	0	0	0	0
614	638	0	0	0	0
609	652	0	0	0	0
614	647	0	0	0	0
598	628	0	0	0	0
596	595	0	0	0	0
583	566	0	0	0	0
579	531	0	0	0	0
566	508	0	0	0	0
563	487	0	0	0	0
553	481	0	0	0	0
556	473	0	0	0	0
542	468	0	0	0	0
543	468	0	0	0	0
540	472	0	0	0	0
535	464	0	0	0	0
527	470	0	0	0	0
537	473	0	0	0	0
539	472	0	0	0	0
550	467	0	0	0	0
540	473	0	0	0	0
543	473	0	0	0	0
542	483	0	0	0	0
547	483	0	0	0	0
539	482	0	0	0	0
538	476	0	0	0	0
532	477	0	0	0	0
537	475	0	0	0	0
529	476	0	0	0	0
531	468	0	0	0	0
526	472	0	0	0	0
535	465	0	0	0	0
531	462	0	0	0	0
536	467	0	0	0	0
536	484	0	0	0	0
540	521	0	0	0	0
537	531	0	0	0	0
545	540	0	0	0	0
547	532	0	0	0	0
545	504	0	0	0	0
553	508	0	0	0	0
561	483	0	0	0	0
543	451	0	0	0	0
540	432	0	0	0	0
536	423	0	0	0	0
543	423	0	0	0	0
537	420	0	0	0	0
543	417	0	0	0	0
534	423	0	0	0	0
539	475	0	0	0	0
551	555	0	0	0	0
596	627	0	0	0	0
625	409	0	0	0	0
604	2	0	0	0	0
535	15	0	0	0	0
504	112	0	0	0	0
515	275	0	0	0	0
536	406	0	0	0	0
539	502	0	0	0	0
545	544	0	0	0	0
551	585	0	0	0	0
556	583	0	0	0	0
548	606	0	0	0	0
563	623	0	0	0	0
564	630	0	0	0	0
561	641	0	0	0	0
554	668	0	0	0	0
569	691	0	0	0	0
569	716	0	0	0	0
583	738	0	0	0	0
585	752	0	0	0	0
590	751	0	0	0	0
591	754	0	0	0	0
598	753	0	0	0	0
598	760	0	0	0	0
606	763	0	0	0	0
604	781	0	0	0	0
600	780	0	0	0	0
591	781	0	0	0	0
595	774	0	0	0	0
585	755	0	0	0	0
575	710	0	0	0	0
561	664	0	0	0	0
563	615	0	0	0	0
547	579	0	0	0	0
543	536	0	0	0	0
532	521	0	0	0	0
536	505	0	0	0	0
531	499	0	0	0	0
532	487	0	0	0	0
524	492	0	0	0	0
524	487	0	0	0	0
521	489	0	0	0	0
527	483	0	0	0	0
521	472	0	0	0	0
528	463	0	0	0	0
526	463	0	0	0	0
531	467	0	0	0	0
527	472	0	0	0	0
536	472	0	0	0	0
534	472	0	0	0	0
536	464	0	0	0	0
534	472	0	0	0	0
531	462	0	0	0	0
526	462	0	0	0	0
530	455	0	0	0	0
523	454	0	0	0	0
526	447	0	0	0	0
523	444	0	0	0	0
526	440	0	0	0	0
527	440	0	0	0	0
538	448	0	0	0	0
532	484	0	0	0	0
531	496	0	0	0	0
531	496	0	0	0	0
540	499	0	0	0	0
534	472	0	0	0	0
537	464	0	0	0	0
537	451	0	0	0	0
536	408	0	0	0	0
521	390	0	0	0	0
524	374	0	0	0	0
519	371	0	0	0	0
527	371	0	0	0	0
527	372	0	0	0	0
527	368	0	0	0	0
527	408	0	0	0	0
547	479	0	0	0	0
568	568	0	0	0	0
608	473	0	0	0	0
604	1	0	0	0	0
544	1	0	0	0	0
492	1	0	0	0	0
513	56	0	0	0	0
526	342	0	0	0	0
536	391	0	0	0	0
540	415	0	0	0	0
551	427	0	0	0	0
547	432	0	0	0	0
556	435	0	0	0	0
556	441	0	0	0	0
561	439	0	0	0	0
559	448	0	0	0	0
561	452	0	0	0	0
563	460	0	0	0	0
574	463	0	0	0	0
572	479	0	0	0	0
579	492	0	0	0	0
575	512	0	0	0	0
577	519	0	0	0	0
579	536	0	0	0	0
601	558	0	0	0	0
595	575	0	0	0	0
604	591	0	0	0	0
604	606	0	0	0	0
605	614	0	0	0	0
595	617	0	0	0	0
584	598	0	0	0	0
566	572	0	0	0	0
564	531	0	0	0	0
550	488	0	0	0	0
551	448	0	0	0	0
540	419	0	0	0	0
543	395	0	0	0	0
536	387	0	0	0	0
536	375	0	0	0	0
524	371	0	0	0	0
524	369	0	0	0	0
519	376	0	0	0	0
515	376	0	0	0	0
510	376	0	0	0	0
523	371	0	0	0	0
527	374	0	0	0	0
540	376	0	0	0	0
537	384	0	0	0	0
542	386	0	0	0	0
537	386	0	0	0	0
543	380	0	0	0	0
540	390	0	0	0	0
540	387	0	0	0	0
536	390	0	0	0	0
537	387	0	0	0	0
527	386	0	0	0	0
536	380	0	0	0	0
539	388	0	0	0	0
540	385	0	0	0	0
529	380	0	0	0	0
540	379	0	0	0	0
539	385	0	0	0	0
547	385	0	0	0	0
540	387	0	0	0	0
540	390	0	0	0	0
540	415	0	0	0	0
541	456	0	0	0	0
534	457	0	0	0	0
540	465	0	0	0	0
537	449	0	0	0	0
545	435	0	0	0	0
543	433	0	0	0	0
556	408	0	0	0	0
535	375	0	0	0	0
536	364	0	0	0	0
536	366	0	0	0	0
539	361	0	0	0	0
531	367	0	0	0	0
536	364	0	0	0	0
531	385	0	0	0	0
540	441	0	0	0	0
547	533	0	0	0	0
587	597	0	0	0	0
608	184	0	0	0	0
556	1	0	0	0	0
491	1	0	0	0	0
494	1	0	0	0	0
519	289	0	0	0	0
536	418	0	0	0	0
531	428	0	0	0	0
547	454	0	0	0	0
542	459	0	0	0	0
550	462	0	0	0	0
543	465	0	0	0	0
547	461	0	0	0	0
544	463	0	0	0	0
553	463	0	0	0	0
551	480	0	0	0	0
568	480	0	0	0	0
566	497	0	0	0	0
574	510	0	0	0	0
572	531	0	0	0	0
583	552	0	0	0	0
578	563	0	0	0	0
588	575	0	0	0	0
590	596	0	0	0	0
596	611	0	0	0	0
591	632	0	0	0	0
600	643	0	0	0	0
593	646	0	0	0	0
593	635	0	0	0	0
582	615	0	0	0	0
575	571	0	0	0	0
556	526	0	0	0	0
553	478	0	0	0	0
543	446	0	0	0	0
540	412	0	0	0	0
532	393	0	0	0	0
537	380	0	0	0	0
526	372	0	0	0	0
528	368	0	0	0	0
523	376	0	0	0	0
524	372	0	0	0	0
523	376	0	0	0	0
527	367	0	0	0	0
527	367	0	0	0	0
540	369	0	0	0	0
534	376	0	0	0	0
540	368	0	0	0	0
537	372	0	0	0	0
542	371	0	0	0	0
539	375	0	0	0	0
542	374	0	0	0	0
537	382	0	0	0	0
540	380	0	0	0	0
533	387	0	0	0	0
534	387	0	0	0	0
534	391	0	0	0	0
540	387	0	0	0	0
535	386	0	0	0	0
544	389	0	0	0	0
547	396	0	0	0	0
551	395	0	0	0	0
543	399	0	0	0	0
551	398	0	0	0	0
543	396	0	0	0	0
537	393	0	0	0	0
536	401	0	0	0	0
542	399	0	0	0	0
536	422	0	0	0	0
540	463	0	0	0	0
536	476	0	0	0	0
542	479	0	0	0	0
540	476	0	0	0	0
545	455	0	0	0	0
550	462	0	0	0	0
555	435	0	0	0	0
539	403	0	0	0	0
534	391	0	0	0	0
531	386	0	0	0	0
534	387	0	0	0	0
532	397	0	0	0	0
532	397	0	0	0	0
535	427	0	0	0	0
543	491	0	0	0	0
560	582	0	0	0	0
600	638	0	0	0	0
614	227	0	0	0	0
560	1	0	0	0	0
496	1	0	0	0	0
492	63	0	0	0	0
512	334	0	0	0	0
531	422	0	0	0	0
524	467	0	0	0	0
535	475	0	0	0	0
536	472	0	0	0	0
540	475	0	0	0	0
536	487	0	0	0	0
545	483	0	0	0	0
539	478	0	0	0	0
543	481	0	0	0	0
547	497	0	0	0	0
551	502	0	0	0	0
560	513	0	0	0	0
572	531	0	0	0	0
571	551	0	0	0	0
573	568	0	0	0	0
572	583	0	0	0	0
582	590	0	0	0	0
582	608	0	0	0	0
590	622	0	0	0	0
588	639	0	0	0	0
588	644	0	0	0	0
577	647	0	0	0	0
579	643	0	0	0	0
569	627	0	0	0	0
567	591	0	0	0	0
551	547	0	0	0	0
545	500	0	0	0	0
537	463	0	0	0	0
534	432	0	0	0	0
519	417	0	0	0	0
526	408	0	0	0	0
520	401	0	0	0	0
524	399	0	0	0	0
518	408	0	0	0	0
524	416	0	0	0	0
515	419	0	0	0	0
526	412	0	0	0	0
527	414	0	0	0	0
531	419	0	0	0	0
531	423	0	0	0	0
531	423	0	0	0	0
529	425	0	0	0	0
540	427	0	0	0	0
540	433	0	0	0	0
538	432	0	0	0	0
532	435	0	0	0	0
535	436	0	0	0	0
530	444	0	0	0	0
535	443	0	0	0	0
525	440	0	0	0	0
534	435	0	0	0	0
529	436	0	0	0	0
536	432	0	0	0	0
536	439	0	0	0	0
537	435	0	0	0	0
542	444	0	0	0	0
541	444	0	0	0	0
532	444	0	0	0	0
540	444	0	0	0	0
534	451	0	0	0	0
537	462	0	0	0	0
536	511	0	0	0	0
536	513	0	0	0	0
537	531	0	0	0	0
545	528	0	0	0	0
540	512	0	0	0	0
551	513	0	0	0	0
548	497	0	0	0	0
543	460	0	0	0	0
529	451	0	0	0	0
530	433	0	0	0	0
529	436	0	0	0	0
531	432	0	0	0	0
527	431	0	0	0	0
535	448	0	0	0	0
536	507	0	0	0	0
563	583	0	0	0	0
599	649	0	0	0	0
624	275	0	0	0	0
568	1	0	0	0	0
510	1	0	0	0	0
492	134	0	0	0	0
518	321	0	0	0	0
527	431	0	0	0	0
536	487	0	0	0	0
532	489	0	0	0	0
543	496	0	0	0	0
540	502	0	0	0	0
549	510	0	0	0	0
547	515	0	0	0	0
551	507	0	0	0	0
540	505	0	0	0	0
547	511	0	0	0	0
548	523	0	0	0	0
556	527	0	0	0	0
551	535	0	0	0	0
563	548	0	0	0	0
560	572	0	0	0	0
568	584	0	0	0	0
567	601	0	0	0	0
579	614	0	0	0	0
579	633	0	0	0	0
578	641	0	0	0	0
575	655	0	0	0	0
579	657	0	0	0	0
572	654	0	0	0	0
569	633	0	0	0	0
558	608	0	0	0	0
556	568	0	0	0	0
544	528	0	0	0	0
536	491	0	0	0	0
527	464	0	0	0	0
530	447	0	0	0	0
524	443	0	0	0	0
520	433	0	0	0	0
515	438	0	0	0	0
519	434	0	0	0	0
516	440	0	0	0	0
526	438	0	0	0	0
524	435	0	0	0	0
532	431	0	0	0	0
534	434	0	0	0	0
543	438	0	0	0	0
534	439	0	0	0	0
537	436	0	0	0	0
539	440	0	0	0	0
545	440	0	0	0	0
532	441	0	0	0	0
536	438	0	0	0	0
535	441	0	0	0	0
536	435	0	0	0	0
531	433	0	0	0	0
539	432	0	0	0	0
536	432	0	0	0	0
540	427	0	0	0	0
540	432	0	0	0	0
545	435	0	0	0	0
540	439	0	0	0	0
547	440	0	0	0	0
545	448	0	0	0	0
547	440	0	0	0	0
537	440	0	0	0	0
543	440	0	0	0	0
534	438	0	0	0	0
536	435	0	0	0	0
531	439	0	0	0	0
543	455	0	0	0	0
536	496	0	0	0	0
542	502	0	0	0	0
540	512	0	0	0	0
547	509	0	0	0	0
543	489	0	0	0	0
556	488	0	0	0	0
550	465	0	0	0	0
540	425	0	0	0	0
534	412	0	0	0	0
537	398	0	0	0	0
527	398	0	0	0	0
532	396	0	0	0	0
531	396	0	0	0	0
536	415	0	0	0	0
536	480	0	0	0	0
563	560	0	0	0	0
608	615	0	0	0	0
624	191	0	0	0	0
556	1	0	0	0	0
504	1	0	0	0	0
496	73	0	0	0	0
519	315	0	0	0	0
529	414	0	0	0	0
534	454	0	0	0	0
527	462	0	0	0	0
540	465	0	0	0	0
531	473	0	0	0	0
543	476	0	0	0	0
540	474	0	0	0	0
542	468	0	0	0	0
540	470	0	0	0	0
545	477	0	0	0	0
548	487	0	0	0	0
559	491	0	0	0	0
563	510	0	0	0	0
566	523	0	0	0	0
563	547	0	0	0	0
575	565	0	0	0	0
575	579	0	0	0	0
583	591	0	0	0	0
583	614	0	0	0	0
590	624	0	0	0	0
588	639	0	0	0	0
585	639	0	0	0	0
577	636	0	0	0	0
574	614	0	0	0	0
567	580	0	0	0	0
559	540	0	0	0	0
547	499	0	0	0	0
545	457	0	0	0	0
535	431	0	0	0	0
536	409	0	0	0	0
524	399	0	0	0	0
527	393	0	0	0	0
516	391	0	0	0	0
519	393	0	0	0	0
524	403	0	0	0	0
527	399	0	0	0	0
526	396	0	0	0	0
536	391	0	0	0	0
539	399	0	0	0	0
543	408	0	0	0	0
536	415	0	0	0	0
543	414	0	0	0	0
543	418	0	0	0	0
543	415	0	0	0	0
532	419	0	0	0	0
540	415	0	0	0	0
535	417	0	0	0	0
540	415	0	0	0	0
536	417	0	0	0	0
534	414	0	0	0	0
537	417	0	0	0	0
540	411	0	0	0	0
535	414	0	0	0	0
545	414	0	0	0	0
536	414	0	0	0	0
545	414	0	0	0	0
544	419	0	0	0	0
544	418	0	0	0	0
543	423	0	0	0	0
547	423	0	0	0	0
537	428	0	0	0	0
536	423	0	0	0	0
529	424	0	0	0	0
534	422	0	0	0	0
534	427	0	0	0	0
539	428	0	0	0	0
539	446	0	0	0	0
543	487	0	0	0	0
541	496	0	0	0	0
550	508	0	0	0	0
547	505	0	0	0	0
547	481	0	0	0	0
551	484	0	0	0	0
555	463	0	0	0	0
536	432	0	0	0	0
531	412	0	0	0	0
529	406	0	0	0	0
534	403	0	0	0	0
531	407	0	0	0	0
534	401	0	0	0	0
536	427	0	0	0	0
551	497	0	0	0	0
572	590	0	0	0	0
615	603	0	0	0	0
612	129	0	0	0	0
563	1	0	0	0	0
499	1	0	0	0	0
508	115	0	0	0	0
524	352	0	0	0	0
537	422	0	0	0	0
529	463	0	0	0	0
540	463	0	0	0	0
540	469	0	0	0	0
547	465	0	0	0	0
550	473	0	0	0	0
551	470	0	0	0	0
543	462	0	0	0	0
550	467	0	0	0	0
547	486	0	0	0	0
552	486	0	0	0	0
551	497	0	0	0	0
566	513	0	0	0	0
572	531	0	0	0	0
575	547	0	0	0	0
569	563	0	0	0	0
579	575	0	0	0	0
585	596	0	0	0	0
590	609	0	0	0	0
585	617	0	0	0	0
588	632	0	0	0	0
579	639	0	0	0	0
577	633	0	0	0	0
569	620	0	0	0	0
560	575	0	0	0	0
551	542	0	0	0	0
547	499	0	0	0	0
534	462	0	0	0	0
536	433	0	0	0	0
526	419	0	0	0	0
528	403	0	0	0	0
519	393	0	0	0	0
519	391	0	0	0	0
515	399	0	0	0	0
515	395	0	0	0	0
519	405	0	0	0	0
520	395	0	0	0	0
524	401	0	0	0	0
536	408	0	0	0	0
531	414	0	0	0	0
535	415	0	0	0	0
539	420	0	0	0	0
540	415	0	0	0	0
540	419	0	0	0	0
532	414	0	0	0	0
528	419	0	0	0	0
531	417	0	0	0	0
526	422	0	0	0	0
528	419	0	0	0	0
527	423	0	0	0	0
534	419	0	0	0	0
531	420	0	0	0	0
536	422	0	0	0	0
539	430	0	0	0	0
536	423	0	0	0	0
536	430	0	0	0	0
537	428	0	0	0	0
535	428	0	0	0	0
536	428	0	0	0	0
527	428	0	0	0	0
537	428	0	0	0	0
534	433	0	0	0	0
536	431	0	0	0	0
539	441	0	0	0	0
542	451	0	0	0	0
540	496	0	0	0	0
543	515	0	0	0	0
539	525	0	0	0	0
545	536	0	0	0	0
536	505	0	0	0	0
551	511	0	0	0	0
551	504	0	0	0	0
542	462	0	0	0	0
530	449	0	0	0	0
536	441	0	0	0	0
531	443	0	0	0	0
531	444	0	0	0	0
531	449	0	0	0	0
530	462	0	0	0	0
529	516	0	0	0	0
553	588	0	0	0	0
591	668	0	0	0	0
621	344	0	0	0	0
577	1	0	0	0	0
519	1	0	0	0	0
492	126	0	0	0	0
515	316	0	0	0	0
526	436	0	0	0	0
531	502	0	0	0	0
531	511	0	0	0	0
534	508	0	0	0	0
532	512	0	0	0	0
542	515	0	0	0	0
539	519	0	0	0	0
545	513	0	0	0	0
539	515	0	0	0	0
543	523	0	0	0	0
547	536	0	0	0	0
556	542	0	0	0	0
560	556	0	0	0	0
569	568	0	0	0	0
560	585	0	0	0	0
568	606	0	0	0	0
563	615	0	0	0	0
572	627	0	0	0	0
576	647	0	0	0	0
582	659	0	0	0	0
579	673	0	0	0	0
580	673	0	0	0	0
575	678	0	0	0	0
566	655	0	0	0	0
556	628	0	0	0	0
550	588	0	0	0	0
537	551	0	0	0	0
531	504	0	0	0	0
526	481	0	0	0	0
527	460	0	0	0	0
518	444	0	0	0	0
519	438	0	0	0	0
511	430	0	0	0	0
515	423	0	0	0	0
508	430	0	0	0	0
516	431	0	0	0	0
515	432	0	0	0	0
524	419	0	0	0	0
523	422	0	0	0	0
528	420	0	0	0	0
527	429	0	0	0	0
531	428	0	0	0	0
529	425	0	0	0	0
537	423	0	0	0	0
531	429	0	0	0	0
534	427	0	0	0	0
527	428	0	0	0	0
529	429	0	0	0	0
527	433	0	0	0	0
530	433	0	0	0	0
524	430	0	0	0	0
531	427	0	0	0	0
529	435	0	0	0	0
531	430	0	0	0	0
528	431	0	0	0	0
536	432	0	0	0	0
536	440	0	0	0	0
534	436	0	0	0	0
529	440	0	0	0	0
535	440	0	0	0	0
529	443	0	0	0	0
527	438	0	0	0	0
524	440	0	0	0	0
527	435	0	0	0	0
527	436	0	0	0	0
535	432	0	0	0	0
526	432	0	0	0	0
532	428	0	0	0	0
537	438	0	0	0	0
537	451	0	0	0	0
532	497	0	0	0	0
540	495	0	0	0	0
537	516	0	0	0	0
542	500	0	0	0	0
540	487	0	0	0	0
543	479	0	0	0	0
542	450	0	0	0	0
540	417	0	0	0	0
531	409	0	0	0	0
531	399	0	0	0	0
529	400	0	0	0	0
535	395	0	0	0	0
531	406	0	0	0	0
534	432	0	0	0	0
542	510	0	0	0	0
569	603	0	0	0	0
600	551	0	0	0	0
608	41	0	0	0	0
540	1	0	0	0	0
488	1	0	0	0	0
499	148	0	0	0	0
531	369	0	0	0	0
540	438	0	0	0	0
543	465	0	0	0	0
542	468	0	0	0	0
550	470	0	0	0	0
547	480	0	0	0	0
547	480	0	0	0	0
547	478	0	0	0	0
551	473	0	0	0	0
547	486	0	0	0	0
557	496	0	0	0	0
552	499	0	0	0	0
567	504	0	0	0	0
561	515	0	0	0	0
572	536	0	0	0	0
568	558	0	0	0	0
574	568	0	0	0	0
575	585	0	0	0	0
583	595	0	0	0	0
585	615	0	0	0	0
593	625	0	0	0	0
579	627	0	0	0	0
582	628	0	0	0	0
575	624	0	0	0	0
575	600	0	0	0	0
553	568	0	0	0	0
551	527	0	0	0	0
542	492	0	0	0	0
537	451	0	0	0	0
531	433	0	0	0	0
526	412	0	0	0	0
519	407	0	0	0	0
519	396	0	0	0	0
515	398	0	0	0	0
519	396	0	0	0	0
516	399	0	0	0	0
524	398	0	0	0	0
523	391	0	0	0	0
532	382	0	0	0	0
536	390	0	0	0	0
536	391	0	0	0	0
527	400	0	0	0	0
532	396	0	0	0	0
536	396	0	0	0	0
543	398	0	0	0	0
539	401	0	0	0	0
540	396	0	0	0	0
531	397	0	0	0	0
539	399	0	0	0	0
532	401	0	0	0	0
536	403	0	0	0	0
532	401	0	0	0	0
536	398	0	0	0	0
536	400	0	0	0	0
543	401	0	0	0	0
540	408	0	0	0	0
547	404	0	0	0	0
545	411	0	0	0	0
551	412	0	0	0	0
545	415	0	0	0	0
543	411	0	0	0	0
539	414	0	0	0	0
545	412	0	0	0	0
540	412	0	0	0	0
540	408	0	0	0	0
534	408	0	0	0	0
541	406	0	0	0	0
543	415	0	0	0	0
543	411	0	0	0	0
542	417	0	0	0	0
545	419	0	0	0	0
537	422	0	0	0	0
543	428	0	0	0	0
543	431	0	0	0	0
543	430	0	0	0	0
543	440	0	0	0	0
553	455	0	0	0	0
547	496	0	0	0	0
551	508	0	0	0	0
547	527	0	0	0	0
551	504	0	0	0	0
550	500	0	0	0	0
563	494	0	0	0	0
551	463	0	0	0	0
545	428	0	0	0	0
536	420	0	0	0	0
540	408	0	0	0	0
534	412	0	0	0	0
541	407	0	0	0	0
536	409	0	0	0	0
536	440	0	0	0	0
543	519	0	0	0	0
574	624	0	0	0	0
608	559	0	0	0	0
600	36	0	0	0	0
530	1	0	0	0	0
499	1	0	0	0	0
511	190	0	0	0	0
540	391	0	0	0	0
534	448	0	0	0	0
542	468	0	0	0	0
542	476	0	0	0	0
547	479	0	0	0	0
542	487	0	0	0	0
543	486	0	0	0	0
547	492	0	0	0	0
551	487	0	0	0	0
547	492	0	0	0	0
559	499	0	0	0	0
560	508	0	0	0	0
563	512	0	0	0	0
567	526	0	0	0	0
568	536	0	0	0	0
568	556	0	0	0	0
571	561	0	0	0	0
572	577	0	0	0	0
588	595	0	0	0	0
587	604	0	0	0	0
598	620	0	0	0	0
595	624	0	0	0	0
600	620	0	0	0	0
588	611	0	0	0	0
583	577	0	0	0	0
568	534	0	0	0	0
564	494	0	0	0	0
543	451	0	0	0	0
539	404	0	0	0	0
527	383	0	0	0	0
528	364	0	0	0	0
529	359	0	0	0	0
524	351	0	0	0	0
518	345	0	0	0	0
524	348	0	0	0	0
519	356	0	0	0	0
526	356	0	0	0	0
526	356	0	0	0	0
531	348	0	0	0	0
531	350	0	0	0	0
536	355	0	0	0	0
534	368	0	0	0	0
540	368	0	0	0	0
537	368	0	0	0	0
547	376	0	0	0	0
540	384	0	0	0	0
543	385	0	0	0	0
539	387	0	0	0	0
536	387	0	0	0	0
532	396	0	0	0	0
537	398	0	0	0	0
532	403	0	0	0	0
534	399	0	0	0	0
536	408	0	0	0	0
542	409	0	0	0	0
537	415	0	0	0	0
539	408	0	0	0	0
536	415	0	0	0	0
542	419	0	0	0	0
536	415	0	0	0	0
539	414	0	0	0	0
537	409	0	0	0	0
539	403	0	0	0	0
536	407	0	0	0	0
535	402	0	0	0	0
529	414	0	0	0	0
540	419	0	0	0	0
533	419	0	0	0	0
536	422	0	0	0	0
535	432	0	0	0	0
531	430	0	0	0	0
536	432	0	0	0	0
539	432	0	0	0	0
529	435	0	0	0	0
534	436	0	0	0	0
536	460	0	0	0	0
540	499	0	0	0	0
534	519	0	0	0	0
537	539	0	0	0	0
536	520	0	0	0	0
545	512	0	0	0	0
547	508	0	0	0	0
545	463	0	0	0	0
535	440	0	0	0	0
531	425	0	0	0	0
531	420	0	0	0	0
540	420	0	0	0	0
534	417	0	0	0	0
536	422	0	0	0	0
539	465	0	0	0	0
553	536	0	0	0	0
583	628	0	0	0	0
627	512	0	0	0	0
603	19	0	0	0	0
545	1	0	0	0	0
494	7	0	0	0	0
510	227	0	0	0	0
531	384	0	0	0	0
540	461	0	0	0	0
526	486	0	0	0	0
543	489	0	0	0	0
545	502	0	0	0	0
547	500	0	0	0	0
545	510	0	0	0	0
548	508	0	0	0	0
543	511	0	0	0	0
551	518	0	0	0	0
543	524	0	0	0	0
557	531	0	0	0	0
559	543	0	0	0	0
569	558	0	0	0	0
569	579	0	0	0	0
572	590	0	0	0	0
574	609	0	0	0	0
577	623	0	0	0	0
577	643	0	0	0	0
583	659	0	0	0	0
579	675	0	0	0	0
588	681	0	0	0	0
590	694	0	0	0	0
588	679	0	0	0	0
572	655	0	0	0	0
568	620	0	0	0	0
556	583	0	0	0	0
545	537	0	0	0	0
532	504	0	0	0	0
534	475	0	0	0	0
527	464	0	0	0	0
521	453	0	0	0	0
513	455	0	0	0	0
519	455	0	0	0	0
520	467	0	0	0	0
521	471	0	0	0	0
519	473	0	0	0	0
531	487	0	0	0	0
527	483	0	0	0	0
529	482	0	0	0	0
526	492	0	0	0	0
531	495	0	0	0	0
529	498	0	0	0	0
536	491	0	0	0	0
536	495	0	0	0	0
535	489	0	0	0	0
536	494	0	0	0	0
536	492	0	0	0	0
527	496	0	0	0	0
527	492	0	0	0	0
527	494	0	0	0	0
531	489	0	0	0	0
527	492	0	0	0	0
527	487	0	0	0	0
527	494	0	0	0	0
531	494	0	0	0	0
531	492	0	0	0	0
536	487	0	0	0	0
531	492	0	0	0	0
536	489	0	0	0	0
532	487	0	0	0	0
531	481	0	0	0	0
525	479	0	0	0	0
536	472	0	0	0	0
532	470	0	0	0	0
534	457	0	0	0	0
532	455	0	0	0	0
542	454	0	0	0	0
534	455	0	0	0	0
536	448	0	0	0	0
540	462	0	0	0	0
543	486	0	0	0	0
541	520	0	0	0	0
540	515	0	0	0	0
540	537	0	0	0	0
545	510	0	0	0	0
547	505	0	0	0	0
557	491	0	0	0	0
542	459	0	0	0	0
536	428	0	0	0	0
536	422	0	0	0	0
537	415	0	0	0	0
535	422	0	0	0	0
539	419	0	0	0	0
535	430	0	0	0	0
545	472	0	0	0	0
548	543	0	0	0	0
588	633	0	0	0	0
627	483	0	0	0	0
604	1	0	0	0	0
529	1	0	0	0	0
500	14	0	0	0	0
511	243	0	0	0	0
531	384	0	0	0	0
532	455	0	0	0	0
540	476	0	0	0	0
540	480	0	0	0	0
547	480	0	0	0	0
543	483	0	0	0	0
548	484	0	0	0	0
543	479	0	0	0	0
547	472	0	0	0	0
545	483	0	0	0	0
553	483	0	0	0	0
550	492	0	0	0	0
568	496	0	0	0	0
563	505	0	0	0	0
571	520	0	0	0	0
571	543	0	0	0	0
577	560	0	0	0	0
582	575	0	0	0	0
594	591	0	0	0	0
591	610	0	0	0	0
603	620	0	0	0	0
598	632	0	0	0	0
598	628	0	0	0	0
591	623	0	0	0	0
587	593	0	0	0	0
572	561	0	0	0	0
562	519	0	0	0	0
544	476	0	0	0	0
539	435	0	0	0	0
531	414	0	0	0	0
532	395	0	0	0	0
527	390	0	0	0	0
531	387	0	0	0	0
524	386	0	0	0	0
527	384	0	0	0	0
521	391	0	0	0	0
528	395	0	0	0	0
531	399	0	0	0	0
535	391	0	0	0	0
531	391	0	0	0	0
540	398	0	0	0	0
535	408	0	0	0	0
539	409	0	0	0	0
543	411	0	0	0	0
545	411	0	0	0	0
542	419	0	0	0	0
543	415	0	0	0	0
536	416	0	0	0	0
543	419	0	0	0	0
543	423	0	0	0	0
537	415	0	0	0	0
535	412	0	0	0	0
543	412	0	0	0	0
540	415	0	0	0	0
542	408	0	0	0	0
535	415	0	0	0	0
547	415	0	0	0	0
540	419	0	0	0	0
543	418	0	0	0	0
540	423	0	0	0	0
537	414	0	0	0	0
540	416	0	0	0	0
543	415	0	0	0	0
529	412	0	0	0	0
541	408	0	0	0	0
531	408	0	0	0	0
536	408	0	0	0	0
531	415	0	0	0	0
536	409	0	0	0	0
536	415	0	0	0	0
540	413	0	0	0	0
536	419	0	0	0	0
542	419	0	0	0	0
537	423	0	0	0	0
536	415	0	0	0	0
537	423	0	0	0	0
540	417	0	0	0	0
537	419	0	0	0	0
543	422	0	0	0	0
540	441	0	0	0	0
547	478	0	0	0	0
540	496	0	0	0	0
551	511	0	0	0	0
551	497	0	0	0	0
558	484	0	0	0	0
556	480	0	0	0	0
558	440	0	0	0	0
540	409	0	0	0	0
540	391	0	0	0	0
529	384	0	0	0	0
537	385	0	0	0	0
536	390	0	0	0	0
540	390	0	0	0	0
536	423	0	0	0	0
551	494	0	0	0	0
577	603	0	0	0	0
615	536	0	0	0	0
604	20	0	0	0	0
547	1	0	0	0	0
499	1	0	0	0	0
511	124	0	0	0	0
532	377	0	0	0	0
543	423	0	0	0	0
540	454	0	0	0	0
547	460	0	0	0	0
547	463	0	0	0	0
551	467	0	0	0	0
541	475	0	0	0	0
555	468	0	0	0	0
550	472	0	0	0	0
553	480	0	0	0	0
551	499	0	0	0	0
557	505	0	0	0	0
558	515	0	0	0	0
571	527	0	0	0	0
568	545	0	0	0	0
574	563	0	0	0	0
575	581	0	0	0	0
588	590	0	0	0	0
591	611	0	0	0	0
600	629	0	0	0	0
595	647	0	0	0	0
598	655	0	0	0	0
595	663	0	0	0	0
596	652	0	0	0	0
579	630	0	0	0	0
575	589	0	0	0	0
558	547	0	0	0	0
551	500	0	0	0	0
542	463	0	0	0	0
539	433	0	0	0	0
527	417	0	0	0	0
531	406	0	0	0	0
529	405	0	0	0	0
526	398	0	0	0	0
526	401	0	0	0	0
527	399	0	0	0	0
524	408	0	0	0	0
532	408	0	0	0	0
535	403	0	0	0	0
543	397	0	0	0	0
536	406	0	0	0	0
542	411	0	0	0	0
537	419	0	0	0	0
547	415	0	0	0	0
543	419	0	0	0	0
547	415	0	0	0	0
543	415	0	0	0	0
550	407	0	0	0	0
537	404	0	0	0	0
545	408	0	0	0	0
537	412	0	0	0	0
540	408	0	0	0	0
540	412	0	0	0	0
543	412	0	0	0	0
542	415	0	0	0	0
550	415	0	0	0	0
540	415	0	0	0	0
551	415	0	0	0	0
550	419	0	0	0	0
551	415	0	0	0	0
547	415	0	0	0	0
553	411	0	0	0	0
541	408	0	0	0	0
547	395	0	0	0	0
539	396	0	0	0	0
544	393	0	0	0	0
535	387	0	0	0	0
537	380	0	0	0	0
536	380	0	0	0	0
536	375	0	0	0	0
536	374	0	0	0	0
540	369	0	0	0	0
535	374	0	0	0	0
539	376	0	0	0	0
537	385	0	0	0	0
540	390	0	0	0	0
540	396	0	0	0	0
543	399	0	0	0	0
534	399	0	0	0	0
540	406	0	0	0	0
543	440	0	0	0	0
547	476	0	0	0	0
545	487	0	0	0	0
549	496	0	0	0	0
543	472	0	0	0	0
561	476	0	0	0	0
563	471	0	0	0	0
551	423	0	0	0	0
543	411	0	0	0	0
556	403	0	0	0	0
546	399	0	0	0	0
547	397	0	0	0	0
541	401	0	0	0	0
551	413	0	0	0	0
545	467	0	0	0	0
563	550	0	0	0	0
601	657	0	0	0	0
639	423	0	0	0	0
601	1	0	0	0	0
539	1	0	0	0	0
499	25	0	0	0	0
521	275	0	0	0	0
540	408	0	0	0	0
545	467	0	0	0	0
543	486	0	0	0	0
551	487	0	0	0	0
550	496	0	0	0	0
558	500	0	0	0	0
551	510	0	0	0	0
560	508	0	0	0	0
558	511	0	0	0	0
560	516	0	0	0	0
556	524	0	0	0	0
567	536	0	0	0	0
559	542	0	0	0	0
572	551	0	0	0	0
569	572	0	0	0	0
579	583	0	0	0	0
579	603	0	0	0	0
588	620	0	0	0	0
590	639	0	0	0	0
598	657	0	0	0	0
595	675	0	0	0	0
600	679	0	0	0	0
585	684	0	0	0	0
585	668	0	0	0	0
577	644	0	0	0	0
571	604	0	0	0	0
551	563	0	0	0	0
551	519	0	0	0	0
540	485	0	0	0	0
534	455	0	0	0	0
524	440	0	0	0	0
526	431	0	0	0	0
518	431	0	0	0	0
515	423	0	0	0	0
515	431	0	0	0	0
524	430	0	0	0	0
518	435	0	0	0	0
531	440	0	0	0	0
529	441	0	0	0	0
529	432	0	0	0	0
532	444	0	0	0	0
529	441	0	0	0	0
521	446	0	0	0	0
536	440	0	0	0	0
528	444	0	0	0	0
536	443	0	0	0	0
531	444	0	0	0	0
534	444	0	0	0	0
534	444	0	0	0	0
534	440	0	0	0	0
528	441	0	0	0	0
536	435	0	0	0	0
527	440	0	0	0	0
534	435	0	0	0	0
531	440	0	0	0	0
542	440	0	0	0	0
536	440	0	0	0	0
536	440	0	0	0	0
536	446	0	0	0	0
540	444	0	0	0	0
536	448	0	0	0	0
540	444	0	0	0	0
534	448	0	0	0	0
532	444	0	0	0	0
528	444	0	0	0	0
536	448	0	0	0	0
540	451	0	0	0	0
543	448	0	0	0	0
536	455	0	0	0	0
543	451	0	0	0	0
542	463	0	0	0	0
543	478	0	0	0	0
536	519	0	0	0	0
540	527	0	0	0	0
539	551	0	0	0	0
543	541	0	0	0	0
543	526	0	0	0	0
555	519	0	0	0	0
548	495	0	0	0	0
543	455	0	0	0	0
531	455	0	0	0	0
534	460	0	0	0	0
535	452	0	0	0	0
531	448	0	0	0	0
526	449	0	0	0	0
532	473	0	0	0	0
536	540	0	0	0	0
569	627	0	0	0	0
601	647	0	0	0	0
614	195	0	0	0	0
553	1	0	0	0	0
504	35	0	0	0	0
495	220	0	0	0	0
523	383	0	0	0	0
529	499	0	0	0	0
532	538	0	0	0	0
531	543	0	0	0	0
543	551	0	0	0	0
543	551	0	0	0	0
547	547	0	0	0	0
543	547	0	0	0	0
550	532	0	0	0	0
547	532	0	0	0	0
550	536	0	0	0	0
547	542	0	0	0	0
559	540	0	0	0	0
558	550	0	0	0	0
572	558	0	0	0	0
568	572	0	0	0	0
574	583	0	0	0	0
572	596	0	0	0	0
585	609	0	0	0	0
585	627	0	0	0	0
595	643	0	0	0	0
590	659	0	0	0	0
593	664	0	0	0	0
587	664	0	0	0	0
580	636	0	0	0	0
569	600	0	0	0	0
566	555	0	0	0	0
547	512	0	0	0	0
543	467	0	0	0	0
536	439	0	0	0	0
535	414	0	0	0	0
527	407	0	0	0	0
527	398	0	0	0	0
516	391	0	0	0	0
524	391	0	0	0	0
516	393	0	0	0	0
524	396	0	0	0	0
526	401	0	0	0	0
536	393	0	0	0	0
532	393	0	0	0	0
536	395	0	0	0	0
531	404	0	0	0	0
531	411	0	0	0	0
536	416	0	0	0	0
543	417	0	0	0	0
531	422	0	0	0	0
536	419	0	0	0	0
523	415	0	0	0	0
536	409	0	0	0	0
529	409	0	0	0	0
531	408	0	0	0	0
526	407	0	0	0	0
534	411	0	0	0	0
529	413	0	0	0	0
540	412	0	0	0	0
539	414	0	0	0	0
542	413	0	0	0	0
536	423	0	0	0	0
541	430	0	0	0	0
534	440	0	0	0	0
536	441	0	0	0	0
531	449	0	0	0	0
547	451	0	0	0	0
537	456	0	0	0	0
537	454	0	0	0	0
532	457	0	0	0	0
547	467	0	0	0	0
533	481	0	0	0	0
543	489	0	0	0	0
540	503	0	0	0	0
551	507	0	0	0	0
546	508	0	0	0	0
553	504	0	0	0	0
547	505	0	0	0	0
557	524	0	0	0	0
543	560	0	0	0	0
547	553	0	0	0	0
547	571	0	0	0	0
547	547	0	0	0	0
545	534	0	0	0	0
556	521	0	0	0	0
553	492	0	0	0	0
547	454	0	0	0	0
536	439	0	0	0	0
543	420	0	0	0	0
537	419	0	0	0	0
543	414	0	0	0	0
537	413	0	0	0	0
540	441	0	0	0	0
545	515	0	0	0	0
583	619	0	0	0	0
614	524	0	0	0	0
601	2	0	0	0	0
531	1	0	0	0	0
497	1	0	0	0	0
508	153	0	0	0	0
536	393	0	0	0	0
535	428	0	0	0	0
540	454	0	0	0	0
536	459	0	0	0	0
545	455	0	0	0	0
548	467	0	0	0	0
555	467	0	0	0	0
548	457	0	0	0	0
548	446	0	0	0	0
547	451	0	0	0	0
555	462	0	0	0	0
551	473	0	0	0	0
566	483	0	0	0	0
555	496	0	0	0	0
563	508	0	0	0	0
568	531	0	0	0	0
574	539	0	0	0	0
572	556	0	0	0	0
587	564	0	0	0	0
583	582	0	0	0	0
591	593	0	0	0	0
588	600	0	0	0	0
600	604	0	0	0	0
588	604	0	0	0	0
589	579	0	0	0	0
569	543	0	0	0	0
560	504	0	0	0	0
548	466	0	0	0	0
543	423	0	0	0	0
531	396	0	0	0	0
536	376	0	0	0	0
531	371	0	0	0	0
527	359	0	0	0	0
515	355	0	0	0	0
518	360	0	0	0	0
507	364	0	0	0	0
513	364	0	0	0	0
513	379	0	0	0	0
524	367	0	0	0	0
524	373	0	0	0	0
527	383	0	0	0	0
523	396	0	0	0	0
540	406	0	0	0	0
534	406	0	0	0	0
539	403	0	0	0	0
529	408	0	0	0	0
536	406	0	0	0	0
531	408	0	0	0	0
536	403	0	0	0	0
527	408	0	0	0	0
540	406	0	0	0	0
542	409	0	0	0	0
551	408	0	0	0	0
542	407	0	0	0	0
556	406	0	0	0	0
553	411	0	0	0	0
560	412	0	0	0	0
552	419	0	0	0	0
563	418	0	0	0	0
559	417	0	0	0	0
563	412	0	0	0	0
556	415	0	0	0	0
559	408	0	0	0	0
560	411	0	0	0	0
569	408	0	0	0	0
560	403	0	0	0	0
568	399	0	0	0	0
569	401	0	0	0	0
575	396	0	0	0	0
563	400	0	0	0	0
573	398	0	0	0	0
568	402	0	0	0	0
575	400	0	0	0	0
571	408	0	0	0	0
575	422	0	0	0	0
568	455	0	0	0	0
568	451	0	0	0	0
566	471	0	0	0	0
573	441	0	0	0	0
560	423	0	0	0	0
574	412	0	0	0	0
558	376	0	0	0	0
555	339	0	0	0	0
545	336	0	0	0	0
556	326	0	0	0	0
544	327	0	0	0	0
551	323	0	0	0	0
547	337	0	0	0	0
556	379	0	0	0	0
567	472	0	0	0	0
600	585	0	0	0	0
632	487	0	0	0	0
623	1	0	0	0	0
544	1	0	0	0	0
513	1	0	0	0	0
524	120	0	0	0	0
543	380	0	0	0	0
543	417	0	0	0	0
548	451	0	0	0	0
547	465	0	0	0	0
556	464	0	0	0	0
556	480	0	0	0	0
561	484	0	0	0	0
553	487	0	0	0	0
556	487	0	0	0	0
552	496	0	0	0	0
560	504	0	0	0	0
556	519	0	0	0	0
566	526	0	0	0	0
564	543	0	0	0	0
574	561	0	0	0	0
569	579	0	0	0	0
577	598	0	0	0	0
579	620	0	0	0	0
588	637	0	0	0	0
588	657	0	0	0	0
595	671	0	0	0	0
588	684	0	0	0	0
594	689	0	0	0	0
582	683	0	0	0	0
574	655	0	0	0	0
560	624	0	0	0	0
563	585	0	0	0	0
542	542	0	0	0	0
543	502	0	0	0	0
536	476	0	0	0	0
536	460	0	0	0	0
531	452	0	0	0	0
536	450	0	0	0	0
521	444	0	0	0	0
527	441	0	0	0	0
524	444	0	0	0	0
531	444	0	0	0	0
531	446	0	0	0	0
540	443	0	0	0	0
536	446	0	0	0	0
541	444	0	0	0	0
539	451	0	0	0	0
545	455	0	0	0	0
536	460	0	0	0	0
543	455	0	0	0	0
539	457	0	0	0	0
540	452	0	0	0	0
532	451	0	0	0	0
540	449	0	0	0	0
536	452	0	0	0	0
536	448	0	0	0	0
536	448	0	0	0	0
543	446	0	0	0	0
541	449	0	0	0	0
543	451	0	0	0	0
536	457	0	0	0	0
543	455	0	0	0	0
540	462	0	0	0	0
547	465	0	0	0	0
539	470	0	0	0	0
539	463	0	0	0	0
540	470	0	0	0	0
545	460	0	0	0	0
536	459	0	0	0	0
543	455	0	0	0	0
539	463	0	0	0	0
546	473	0	0	0	0
536	515	0	0	0	0
537	518	0	0	0	0
535	531	0	0	0	0
545	529	0	0	0	0
540	507	0	0	0	0
548	504	0	0	0	0
543	483	0	0	0	0
540	449	0	0	0	0
529	447	0	0	0	0
535	440	0	0	0	0
524	443	0	0	0	0
532	449	0	0	0	0
531	453	0	0	0	0
531	471	0	0	0	0
536	534	0	0	0	0
560	611	0	0	0	0
604	660	0	0	0	0
619	236	0	0	0	0
559	1	0	0	0	0
508	8	0	0	0	0
499	183	0	0	0	0
525	348	0	0	0	0
529	463	0	0	0	0
531	505	0	0	0	0
525	505	0	0	0	0
537	511	0	0	0	0
536	512	0	0	0	0
540	511	0	0	0	0
542	518	0	0	0	0
547	510	0	0	0	0
547	519	0	0	0	0
550	521	0	0	0	0
543	527	0	0	0	0
551	534	0	0	0	0
551	545	0	0	0	0
563	556	0	0	0	0
560	575	0	0	0	0
572	595	0	0	0	0
574	614	0	0	0	0
581	626	0	0	0	0
585	647	0	0	0	0
596	659	0	0	0	0
588	673	0	0	0	0
595	675	0	0	0	0
583	671	0	0	0	0
579	647	0	0	0	0
561	615	0	0	0	0
555	572	0	0	0	0
535	526	0	0	0	0
536	483	0	0	0	0
526	455	0	0	0	0
527	432	0	0	0	0
519	425	0	0	0	0
527	415	0	0	0	0
521	417	0	0	0	0
523	412	0	0	0	0
515	416	0	0	0	0
527	419	0	0	0	0
523	428	0	0	0	0
528	423	0	0	0	0
527	423	0	0	0	0
536	423	0	0	0	0
529	435	0	0	0	0
536	435	0	0	0	0
536	435	0	0	0	0
540	428	0	0	0	0
531	425	0	0	0	0
527	416	0	0	0	0
524	415	0	0	0	0
534	412	0	0	0	0
529	416	0	0	0	0
529	409	0	0	0	0
525	408	0	0	0	0
529	407	0	0	0	0
523	399	0	0	0	0
524	396	0	0	0	0
524	400	0	0	0	0
531	396	0	0	0	0
525	401	0	0	0	0
531	400	0	0	0	0
524	406	0	0	0	0
526	399	0	0	0	0
523	408	0	0	0	0
526	408	0	0	0	0
521	412	0	0	0	0
528	408	0	0	0	0
529	412	0	0	0	0
536	409	0	0	0	0
536	415	0	0	0	0
543	422	0	0	0	0
539	462	0	0	0	0
540	483	0	0	0	0
537	492	0	0	0	0
543	507	0	0	0	0
539	480	0	0	0	0
548	472	0	0	0	0
552	460	0	0	0	0
553	418	0	0	0	0
534	396	0	0	0	0
542	387	0	0	0	0
536	387	0	0	0	0
542	385	0	0	0	0
536	381	0	0	0	0
539	387	0	0	0	0
534	435	0	0	0	0
560	511	0	0	0	0
583	612	0	0	0	0
624	423	0	0	0	0
591	1	0	0	0	0
531	1	0	0	0	0
492	1	0	0	0	0
519	206	0	0	0	0
531	411	0	0	0	0
542	435	0	0	0	0
536	467	0	0	0	0
542	464	0	0	0	0
542	475	0	0	0	0
542	472	0	0	0	0
540	480	0	0	0	0
550	480	0	0	0	0
543	480	0	0	0	0
551	481	0	0	0	0
545	500	0	0	0	0
560	508	0	0	0	0
553	519	0	0	0	0
563	529	0	0	0	0
563	553	0	0	0	0
577	575	0	0	0	0
567	583	0	0	0	0
588	600	0	0	0	0
585	620	0	0	0	0
600	635	0	0	0	0
595	655	0	0	0	0
606	660	0	0	0	0
601	664	0	0	0	0
603	652	0	0	0	0
583	620	0	0	0	0
569	580	0	0	0	0
547	547	0	0	0	0
543	503	0	0	0	0
535	462	0	0	0	0
536	440	0	0	0	0
523	435	0	0	0	0
524	419	0	0	0	0
519	408	0	0	0	0
526	404	0	0	0	0
515	409	0	0	0	0
524	414	0	0	0	0
519	423	0	0	0	0
532	419	0	0	0	0
527	414	0	0	0	0
537	417	0	0	0	0
531	425	0	0	0	0
542	428	0	0	0	0
535	428	0	0	0	0
543	423	0	0	0	0
539	428	0	0	0	0
545	419	0	0	0	0
537	418	0	0	0	0
543	414	0	0	0	0
536	420	0	0	0	0
539	416	0	0	0	0
527	415	0	0	0	0
536	409	0	0	0	0
528	414	0	0	0	0
542	408	0	0	0	0
539	411	0	0	0	0
544	412	0	0	0	0
534	409	0	0	0	0
543	403	0	0	0	0
537	407	0	0	0	0
543	401	0	0	0	0
536	393	0	0	0	0
543	384	0	0	0	0
536	384	0	0	0	0
543	382	0	0	0	0
540	377	0	0	0	0
547	368	0	0	0	0
539	364	0	0	0	0
540	358	0	0	0	0
536	359	0	0	0	0
551	358	0	0	0	0
543	359	0	0	0	0
557	368	0	0	0	0
559	412	0	0	0	0
566	432	0	0	0	0
558	441	0	0	0	0
574	449	0	0	0	0
566	435	0	0	0	0
575	433	0	0	0	0
569	419	0	0	0	0
569	383	0	0	0	0
553	370	0	0	0	0
563	359	0	0	0	0
550	353	0	0	0	0
560	358	0	0	0	0
559	361	0	0	0	0
558	371	0	0	0	0
561	441	0	0	0	0
584	531	0	0	0	0
619	620	0	0	0	0
653	252	0	0	0	0
590	1	0	0	0	0
538	1	0	0	0	0
519	1	0	0	0	0
547	271	0	0	0	0
553	423	0	0	0	0
552	433	0	0	0	0
548	467	0	0	0	0
560	467	0	0	0	0
556	473	0	0	0	0
560	481	0	0	0	0
561	491	0	0	0	0
568	497	0	0	0	0
558	504	0	0	0	0
566	508	0	0	0	0
560	520	0	0	0	0
568	531	0	0	0	0
562	543	0	0	0	0
569	551	0	0	0	0
569	572	0	0	0	0
579	588	0	0	0	0
574	608	0	0	0	0
583	622	0	0	0	0
583	639	0	0	0	0
596	659	0	0	0	0
586	673	0	0	0	0
595	679	0	0	0	0
588	681	0	0	0	0
591	664	0	0	0	0
572	633	0	0	0	0
564	591	0	0	0	0
551	555	0	0	0	0
551	512	0	0	0	0
537	476	0	0	0	0
542	455	0	0	0	0
531	446	0	0	0	0
527	438	0	0	0	0
523	435	0	0	0	0
527	432	0	0	0	0
521	438	0	0	0	0
531	439	0	0	0	0
524	441	0	0	0	0
533	440	0	0	0	0
529	441	0	0	0	0
539	444	0	0	0	0
536	448	0	0	0	0
543	449	0	0	0	0
547	455	0	0	0	0
550	448	0	0	0	0
545	455	0	0	0	0
548	449	0	0	0	0
540	451	0	0	0	0
545	451	0	0	0	0
531	448	0	0	0	0
539	446	0	0	0	0
534	444	0	0	0	0
535	440	0	0	0	0
536	444	0	0	0	0
531	439	0	0	0	0
532	440	0	0	0	0
540	441	0	0	0	0
531	441	0	0	0	0
540	444	0	0	0	0
532	445	0	0	0	0
536	441	0	0	0	0
529	444	0	0	0	0
536	439	0	0	0	0
529	446	0	0	0	0
536	442	0	0	0	0
528	440	0	0	0	0
528	440	0	0	0	0
531	449	0	0	0	0
529	448	0	0	0	0
527	452	0	0	0	0
534	468	0	0	0	0
527	511	0	0	0	0
535	533	0	0	0	0
523	561	0	0	0	0
540	591	0	0	0	0
532	599	0	0	0	0
543	607	0	0	0	0
536	583	0	0	0	0
536	543	0	0	0	0
519	530	0	0	0	0
532	521	0	0	0	0
521	524	0	0	0	0
524	515	0	0	0	0
519	518	0	0	0	0
519	529	0	0	0	0
520	592	0	0	0	0
543	671	0	0	0	0
579	736	0	0	0	0
615	364	0	0	0	0
543	49	0	0	0	0
489	79	0	0	0	0
476	248	0	0	0	0
508	440	0	0	0	0
519	568	0	0	0	0
526	611	0	0	0	0
515	601	0	0	0	0
531	598	0	0	0	0
542	595	0	0	0	0
547	585	0	0	0	0
551	577	0	0	0	0
567	583	0	0	0	0
544	558	0	0	0	0
552	559	0	0	0	0
545	571	0	0	0	0
556	578	0	0	0	0
548	583	0	0	0	0
556	596	0	0	0	0
558	615	0	0	0	0
572	620	0	0	0	0
574	638	0	0	0	0
585	651	0	0	0	0
575	662	0	0	0	0
583	675	0	0	0	0
553	682	0	0	0	0
557	679	0	0	0	0
568	681	0	0	0	0
568	665	0	0	0	0
556	627	0	0	0	0
568	591	0	0	0	0
542	556	0	0	0	0
545	508	0	0	0	0
540	483	0	0	0	0
555	455	0	0	0	0
540	448	0	0	0	0
543	438	0	0	0	0
531	435	0	0	0	0
532	422	0	0	0	0
534	422	0	0	0	0
536	423	0	0	0	0
528	423	0	0	0	0
531	399	0	0	0	0
516	396	0	0	0	0
519	396	0	0	0	0
526	406	0	0	0	0
539	406	0	0	0	0
543	403	0	0	0	0
542	391	0	0	0	0
537	391	0	0	0	0
550	391	0	0	0	0
547	391	0	0	0	0
551	390	0	0	0	0
529	387	0	0	0	0
527	403	0	0	0	0
512	404	0	0	0	0
519	415	0	0	0	0
507	415	0	0	0	0
519	408	0	0	0	0
515	417	0	0	0	0
543	407	0	0	0	0
545	409	0	0	0	0
539	415	0	0	0	0
508	423	0	0	0	0
505	416	0	0	0	0
504	409	0	0	0	0
527	409	0	0	0	0
538	415	0	0	0	0
559	408	0	0	0	0
551	406	0	0	0	0
564	403	0	0	0	0
556	401	0	0	0	0
568	408	0	0	0	0
558	412	0	0	0	0
560	401	0	0	0	0
551	407	0	0	0	0
569	413	0	0	0	0
563	455	0	0	0	0
560	481	0	0	0	0
553	483	0	0	0	0
575	500	0	0	0	0
582	497	0	0	0	0
579	465	0	0	0	0
574	463	0	0	0	0
579	430	0	0	0	0
555	391	0	0	0	0
563	372	0	0	0	0
574	376	0	0	0	0
560	375	0	0	0	0
542	374	0	0	0	0
557	369	0	0	0	0
551	396	0	0	0	0
568	467	0	0	0	0
583	560	0	0	0	0
616	568	0	0	0	0
607	57	0	0	0	0
560	1	0	0	0	0
496	1	0	0	0	0
518	1	0	0	0	0
528	327	0	0	0	0
560	427	0	0	0	0
539	409	0	0	0	0
560	432	0	0	0	0
568	441	0	0	0	0
551	446	0	0	0	0
541	451	0	0	0	0
536	460	0	0	0	0
519	470	0	0	0	0
535	486	0	0	0	0
531	504	0	0	0	0
539	508	0	0	0	0
543	519	0	0	0	0
564	527	0	0	0	0
563	548	0	0	0	0
568	553	0	0	0	0
569	573	0	0	0	0
579	596	0	0	0	0
575	617	0	0	0	0
583	651	0	0	0	0
568	646	0	0	0	0
590	662	0	0	0	0
585	676	0	0	0	0
588	668	0	0	0	0
568	643	0	0	0	0
574	608	0	0	0	0
547	568	0	0	0	0
539	511	0	0	0	0
525	472	0	0	0	0
540	452	0	0	0	0
521	443	0	0	0	0
515	419	0	0	0	0
511	413	0	0	0	0
521	409	0	0	0	0
524	412	0	0	0	0
536	421	0	0	0	0
528	422	0	0	0	0
534	423	0	0	0	0
523	417	0	0	0	0
532	417	0	0	0	0
527	420	0	0	0	0
536	419	0	0	0	0
519	415	0	0	0	0
536	406	0	0	0	0
539	412	0	0	0	0
543	412	0	0	0	0
527	412	0	0	0	0
536	403	0	0	0	0
524	409	0	0	0	0
539	403	0	0	0	0
529	408	0	0	0	0
543	403	0	0	0	0
536	408	0	0	0	0
553	403	0	0	0	0
551	403	0	0	0	0
555	403	0	0	0	0
548	399	0	0	0	0
563	403	0	0	0	0
548	403	0	0	0	0
550	390	0	0	0	0
553	408	0	0	0	0
560	397	0	0	0	0
553	397	0	0	0	0
563	404	0	0	0	0
552	403	0	0	0	0
566	407	0	0	0	0
551	407	0	0	0	0
556	401	0	0	0	0
553	409	0	0	0	0
560	403	0	0	0	0
547	408	0	0	0	0
560	406	0	0	0	0
558	428	0	0	0	0
563	479	0	0	0	0
555	476	0	0	0	0
566	483	0	0	0	0
579	487	0	0	0	0
575	444	0	0	0	0
561	443	0	0	0	0
574	398	0	0	0	0
561	361	0	0	0	0
563	345	0	0	0	0
553	335	0	0	0	0
559	339	0	0	0	0
551	340	0	0	0	0
558	344	0	0	0	0
555	374	0	0	0	0
569	438	0	0	0	0
583	558	0	0	0	0
633	580	0	0	0	0
630	91	0	0	0	0
569	1	0	0	0	0
495	1	0	0	0	0
519	4	0	0	0	0
542	322	0	0	0	0
551	415	0	0	0	0
540	409	0	0	0	0
556	440	0	0	0	0
550	443	0	0	0	0
560	443	0	0	0	0
559	460	0	0	0	0
551	459	0	0	0	0
547	460	0	0	0	0
561	467	0	0	0	0
556	476	0	0	0	0
568	486	0	0	0	0
551	494	0	0	0	0
566	496	0	0	0	0
571	514	0	0	0	0
590	535	0	0	0	0
583	552	0	0	0	0
583	574	0	0	0	0
577	596	0	0	0	0
588	607	0	0	0	0
583	617	0	0	0	0
590	632	0	0	0	0
575	627	0	0	0	0
583	627	0	0	0	0
574	611	0	0	0	0
577	588	0	0	0	0
543	547	0	0	0	0
540	504	0	0	0	0
526	471	0	0	0	0
535	439	0	0	0	0
519	419	0	0	0	0
529	405	0	0	0	0
516	399	0	0	0	0
529	391	0	0	0	0
526	391	0	0	0	0
526	382	0	0	0	0
518	383	0	0	0	0
534	377	0	0	0	0
527	377	0	0	0	0
543	379	0	0	0	0
536	372	0	0	0	0
543	364	0	0	0	0
539	364	0	0	0	0
551	360	0	0	0	0
543	361	0	0	0	0
551	352	0	0	0	0
543	353	0	0	0	0
550	349	0	0	0	0
539	347	0	0	0	0
551	345	0	0	0	0
543	345	0	0	0	0
558	342	0	0	0	0
556	345	0	0	0	0
563	336	0	0	0	0
560	335	0	0	0	0
566	339	0	0	0	0
556	335	0	0	0	0
579	334	0	0	0	0
561	344	0	0	0	0
558	339	0	0	0	0
553	343	0	0	0	0
555	350	0	0	0	0
547	358	0	0	0	0
551	364	0	0	0	0
542	368	0	0	0	0
551	371	0	0	0	0
531	382	0	0	0	0
542	379	0	0	0	0
545	391	0	0	0	0
543	392	0	0	0	0
535	396	0	0	0	0
547	405	0	0	0	0
527	412	0	0	0	0
540	412	0	0	0	0
532	415	0	0	0	0
546	432	0	0	0	0
536	476	0	0	0	0
551	496	0	0	0	0
543	518	0	0	0	0
560	510	0	0	0	0
553	495	0	0	0	0
563	487	0	0	0	0
547	440	0	0	0	0
547	403	0	0	0	0
535	393	0	0	0	0
540	379	0	0	0	0
535	377	0	0	0	0
550	377	0	0	0	0
542	374	0	0	0	0
553	401	0	0	0	0
555	472	0	0	0	0
598	575	0	0	0	0
639	569	0	0	0	0
628	103	0	0	0	0
553	1	0	0	0	0
515	1	0	0	0	0
527	94	0	0	0	0
556	316	0	0	0	0
553	391	0	0	0	0
559	427	0	0	0	0
559	438	0	0	0	0
572	440	0	0	0	0
556	448	0	0	0	0
568	460	0	0	0	0
553	465	0	0	0	0
566	467	0	0	0	0
556	473	0	0	0	0
560	483	0	0	0	0
556	499	0	0	0	0
560	511	0	0	0	0
551	524	0	0	0	0
569	540	0	0	0	0
558	560	0	0	0	0
566	583	0	0	0	0
563	603	0	0	0	0
575	620	0	0	0	0
577	636	0	0	0	0
585	648	0	0	0	0
579	664	0	0	0	0
591	670	0	0	0	0
579	668	0	0	0	0
582	652	0	0	0	0
568	627	0	0	0	0
563	589	0	0	0	0
540	551	0	0	0	0
542	512	0	0	0	0
532	492	0	0	0	0
536	472	0	0	0	0
524	463	0	0	0	0
527	459	0	0	0	0
519	460	0	0	0	0
529	457	0	0	0	0
519	460	0	0	0	0
531	465	0	0	0	0
523	468	0	0	0	0
527	464	0	0	0	0
527	463	0	0	0	0
540	468	0	0	0	0
531	470	0	0	0	0
536	470	0	0	0	0
536	476	0	0	0	0
545	476	0	0	0	0
536	472	0	0	0	0
537	470	0	0	0	0
529	472	0	0	0	0
529	467	0	0	0	0
524	470	0	0	0	0
539	467	0	0	0	0
524	464	0	0	0	0
531	462	0	0	0	0
526	463	0	0	0	0
536	459	0	0	0	0
527	459	0	0	0	0
535	458	0	0	0	0
531	462	0	0	0	0
536	460	0	0	0	0
531	456	0	0	0	0
543	459	0	0	0	0
532	462	0	0	0	0
539	467	0	0	0	0
534	489	0	0	0	0
539	531	0	0	0	0
537	529	0	0	0	0
543	547	0	0	0	0
532	531	0	0	0	0
537	511	0	0	0	0
539	511	0	0	0	0
542	476	0	0	0	0
526	444	0	0	0	0
527	433	0	0	0	0
519	427	0	0	0	0
524	430	0	0	0	0
519	430	0	0	0	0
527	432	0	0	0	0
519	463	0	0	0	0
536	531	0	0	0	0
561	617	0	0	0	0
615	611	0	0	0	0
593	157	0	0	0	0
536	1	0	0	0	0
480	7	0	0	0	0
496	204	0	0	0	0
509	379	0	0	0	0
527	476	0	0	0	0
519	519	0	0	0	0
524	524	0	0	0	0
519	539	0	0	0	0
532	542	0	0	0	0
531	551	0	0	0	0
540	559	0	0	0	0
532	556	0	0	0	0
536	551	0	0	0	0
536	561	0	0	0	0
550	568	0	0	0	0
540	572	0	0	0	0
547	575	0	0	0	0
551	588	0	0	0	0
568	605	0	0	0	0
561	627	0	0	0	0
564	636	0	0	0	0
568	655	0	0	0	0
583	668	0	0	0	0
583	677	0	0	0	0
596	686	0	0	0	0
579	689	0	0	0	0
582	679	0	0	0	0
572	655	0	0	0	0
564	623	0	0	0	0
537	582	0	0	0	0
535	542	0	0	0	0
524	505	0	0	0	0
532	480	0	0	0	0
526	463	0	0	0	0
536	451	0	0	0	0
525	452	0	0	0	0
529	448	0	0	0	0
521	452	0	0	0	0
528	454	0	0	0	0
519	457	0	0	0	0
527	455	0	0	0	0
519	451	0	0	0	0
529	448	0	0	0	0
529	443	0	0	0	0
539	447	0	0	0	0
532	448	0	0	0	0
543	444	0	0	0	0
536	438	0	0	0	0
539	431	0	0	0	0
536	435	0	0	0	0
542	433	0	0	0	0
529	433	0	0	0	0
536	432	0	0	0	0
531	432	0	0	0	0
536	428	0	0	0	0
524	425	0	0	0	0
539	423	0	0	0	0
532	423	0	0	0	0
547	424	0	0	0	0
540	431	0	0	0	0
547	431	0	0	0	0
536	427	0	0	0	0
543	430	0	0	0	0
536	435	0	0	0	0
543	432	0	0	0	0
537	443	0	0	0	0
541	460	0	0	0	0
534	499	0	0	0	0
543	494	0	0	0	0
539	502	0	0	0	0
547	475	0	0	0	0
536	457	0	0	0	0
551	451	0	0	0	0
545	415	0	0	0	0
538	383	0	0	0	0
527	376	0	0	0	0
542	371	0	0	0	0
534	372	0	0	0	0
539	376	0	0	0	0
534	380	0	0	0	0
545	415	0	0	0	0
548	488	0	0	0	0
588	583	0	0	0	0
622	563	0	0	0	0
620	68	0	0	0	0
536	1	0	0	0	0
499	1	0	0	0	0
499	131	0	0	0	0
531	379	0	0	0	0
528	432	0	0	0	0
540	462	0	0	0	0
535	467	0	0	0	0
544	465	0	0	0	0
540	467	0	0	0	0
551	473	0	0	0	0
547	480	0	0	0	0
558	476	0	0	0	0
546	480	0	0	0	0
551	486	0	0	0	0
551	494	0	0	0	0
563	504	0	0	0	0
559	513	0	0	0	0
575	534	0	0	0	0
568	553	0	0	0	0
585	572	0	0	0	0
583	593	0	0	0	0
595	612	0	0	0	0
591	624	0	0	0	0
606	635	0	0	0	0
600	647	0	0	0	0
606	652	0	0	0	0
588	639	0	0	0	0
591	615	0	0	0	0
568	575	0	0	0	0
566	537	0	0	0	0
547	499	0	0	0	0
547	464	0	0	0	0
540	440	0	0	0	0
543	421	0	0	0	0
532	412	0	0	0	0
545	403	0	0	0	0
527	396	0	0	0	0
536	398	0	0	0	0
525	393	0	0	0	0
534	399	0	0	0	0
527	401	0	0	0	0
541	396	0	0	0	0
540	399	0	0	0	0
547	399	0	0	0	0
545	412	0	0	0	0
551	408	0	0	0	0
543	401	0	0	0	0
556	403	0	0	0	0
545	401	0	0	0	0
547	396	0	0	0	0
545	399	0	0	0	0
545	396	0	0	0	0
536	398	0	0	0	0
550	393	0	0	0	0
536	387	0	0	0	0
543	389	0	0	0	0
545	391	0	0	0	0
551	391	0	0	0	0
543	393	0	0	0	0
546	393	0	0	0	0
545	400	0	0	0	0
555	399	0	0	0	0
543	403	0	0	0	0
551	403	0	0	0	0
543	415	0	0	0	0
551	439	0	0	0	0
543	483	0	0	0	0
558	481	0	0	0	0
550	497	0	0	0	0
556	483	0	0	0	0
551	472	0	0	0	0
568	470	0	0	0	0
558	432	0	0	0	0
556	399	0	0	0	0
536	388	0	0	0	0
543	382	0	0	0	0
537	387	0	0	0	0
539	387	0	0	0	0
542	388	0	0	0	0
547	422	0	0	0	0
551	496	0	0	0	0
596	583	0	0	0	0
625	569	0	0	0	0
633	93	0	0	0	0
563	1	0	0	0	0
516	1	0	0	0	0
515	102	0	0	0	0
543	368	0	0	0	0
539	430	0	0	0	0
547	472	0	0	0	0
540	482	0	0	0	0
543	481	0	0	0	0
536	487	0	0	0	0
541	489	0	0	0	0
543	499	0	0	0	0
548	502	0	0	0	0
540	508	0	0	0	0
550	519	0	0	0	0
547	531	0	0	0	0
553	540	0	0	0	0
548	551	0	0	0	0
559	561	0	0	0	0
551	575	0	0	0	0
564	591	0	0	0	0
563	607	0	0	0	0
572	619	0	0	0	0
574	636	0	0	0	0
585	655	0	0	0	0
577	664	0	0	0	0
586	665	0	0	0	0
579	664	0	0	0	0
575	639	0	0	0	0
560	607	0	0	0	0
557	568	0	0	0	0
542	524	0	0	0	0
536	483	0	0	0	0
528	460	0	0	0	0
534	448	0	0	0	0
525	438	0	0	0	0
526	431	0	0	0	0
514	429	0	0	0	0
521	432	0	0	0	0
515	431	0	0	0	0
518	440	0	0	0	0
515	446	0	0	0	0
523	444	0	0	0	0
520	451	0	0	0	0
524	451	0	0	0	0
524	459	0	0	0	0
527	457	0	0	0	0
515	459	0	0	0	0
534	463	0	0	0	0
524	471	0	0	0	0
524	472	0	0	0	0
515	478	0	0	0	0
519	483	0	0	0	0
511	487	0	0	0	0
517	483	0	0	0	0
512	491	0	0	0	0
519	497	0	0	0	0
518	510	0	0	0	0
527	519	0	0	0	0
519	526	0	0	0	0
527	516	0	0	0	0
516	512	0	0	0	0
513	515	0	0	0	0
518	535	0	0	0	0
524	579	0	0	0	0
519	585	0	0	0	0
526	583	0	0	0	0
519	575	0	0	0	0
519	532	0	0	0	0
524	527	0	0	0	0
527	500	0	0	0	0
511	459	0	0	0	0
511	441	0	0	0	0
505	433	0	0	0	0
519	433	0	0	0	0
515	429	0	0	0	0
526	416	0	0	0	0
520	423	0	0	0	0
535	483	0	0	0	0
550	558	0	0	0	0
600	624	0	0	0	0
612	297	0	0	0	0
568	1	0	0	0	0
500	1	0	0	0	0
492	9	0	0	0	0
511	292	0	0	0	0
529	419	0	0	0	0
524	460	0	0	0	0
531	479	0	0	0	0
531	476	0	0	0	0
543	481	0	0	0	0
531	479	0	0	0	0
550	478	0	0	0	0
544	467	0	0	0	0
551	460	0	0	0	0
543	465	0	0	0	0
547	472	0	0	0	0
540	480	0	0	0	0
551	487	0	0	0	0
550	504	0	0	0	0
559	515	0	0	0	0
558	534	0	0	0	0
568	542	0	0	0	0
574	551	0	0	0	0
588	545	0	0	0	0
587	543	0	0	0	0
587	547	0	0	0	0
584	556	0	0	0	0
591	558	0	0	0	0
569	551	0	0	0	0
572	535	0	0	0	0
547	515	0	0	0	0
539	484	0	0	0	0
527	462	0	0	0	0
526	436	0	0	0	0
519	420	0	0	0	0
524	409	0	0	0	0
521	404	0	0	0	0
531	396	0	0	0	0
521	391	0	0	0	0
527	395	0	0	0	0
521	399	0	0	0	0
525	403	0	0	0	0
519	399	0	0	0	0
536	407	0	0	0	0
534	415	0	0	0	0
543	432	0	0	0	0
536	446	0	0	0	0
543	460	0	0	0	0
537	472	0	0	0	0
547	473	0	0	0	0
543	475	0	0	0	0
542	463	0	0	0	0
534	460	0	0	0	0
537	457	0	0	0	0
531	457	0	0	0	0
536	455	0	0	0	0
528	455	0	0	0	0
531	457	0	0	0	0
529	460	0	0	0	0
536	452	0	0	0	0
532	449	0	0	0	0
551	445	0	0	0	0
539	433	0	0	0	0
545	428	0	0	0	0
537	428	0	0	0	0
548	446	0	0	0	0
535	496	0	0	0	0
547	507	0	0	0	0
543	529	0	0	0	0
555	536	0	0	0	0
540	515	0	0	0	0
553	511	0	0	0	0
550	480	0	0	0	0
547	431	0	0	0	0
529	414	0	0	0	0
536	393	0	0	0	0
521	385	0	0	0	0
531	396	0	0	0	0
520	400	0	0	0	0
524	425	0	0	0	0
528	500	0	0	0	0
551	603	0	0	0	0
582	702	0	0	0	0
611	300	0	0	0	0
540	1	0	0	0	0
495	1	0	0	0	0
487	105	0	0	0	0
527	327	0	0	0	0
526	433	0	0	0	0
536	460	0	0	0	0
531	467	0	0	0	0
540	473	0	0	0	0
532	483	0	0	0	0
544	491	0	0	0	0
540	496	0	0	0	0
550	496	0	0	0	0
540	500	0	0	0	0
555	511	0	0	0	0
556	531	0	0	0	0
562	540	0	0	0	0
568	556	0	0	0	0
583	575	0	0	0	0
575	598	0	0	0	0
594	600	0	0	0	0
590	612	0	0	0	0
605	624	0	0	0	0
604	635	0	0	0	0
615	639	0	0	0	0
603	636	0	0	0	0
609	639	0	0	0	0
592	632	0	0	0	0
588	604	0	0	0	0
568	573	0	0	0	0
558	526	0	0	0	0
536	475	0	0	0	0
529	427	0	0	0	0
518	390	0	0	0	0
510	358	0	0	0	0
511	350	0	0	0	0
519	342	0	0	0	0
505	337	0	0	0	0
521	342	0	0	0	0
519	345	0	0	0	0
520	348	0	0	0	0
526	342	0	0	0	0
536	332	0	0	0	0
531	331	0	0	0	0
539	339	0	0	0	0
535	345	0	0	0	0
547	350	0	0	0	0
540	348	0	0	0	0
547	348	0	0	0	0
547	355	0	0	0	0
558	359	0	0	0	0
540	352	0	0	0	0
551	352	0	0	0	0
551	356	0	0	0	0
550	352	0	0	0	0
540	358	0	0	0	0
547	359	0	0	0	0
540	359	0	0	0	0
540	358	0	0	0	0
524	362	0	0	0	0
536	361	0	0	0	0
524	369	0	0	0	0
536	380	0	0	0	0
524	375	0	0	0	0
534	384	0	0	0	0
534	423	0	0	0	0
542	459	0	0	0	0
536	460	0	0	0	0
547	481	0	0	0	0
542	451	0	0	0	0
551	441	0	0	0	0
560	431	0	0	0	0
551	380	0	0	0	0
539	348	0	0	0	0
540	333	0	0	0	0
535	332	0	0	0	0
541	337	0	0	0	0
542	343	0	0	0	0
547	353	0	0	0	0
532	398	0	0	0	0
568	477	0	0	0	0
600	575	0	0	0	0
643	480	0	0	0	0
611	1	0	0	0	0
543	1	0	0	0	0
504	1	0	0	0	0
518	51	0	0	0	0
521	365	0	0	0	0
534	415	0	0	0	0
529	435	0	0	0	0
540	460	0	0	0	0
536	463	0	0	0	0
533	472	0	0	0	0
524	484	0	0	0	0
537	496	0	0	0	0
532	496	0	0	0	0
537	501	0	0	0	0
536	515	0	0	0	0
536	519	0	0	0	0
532	528	0	0	0	0
540	543	0	0	0	0
539	563	0	0	0	0
543	583	0	0	0	0
543	608	0	0	0	0
559	624	0	0	0	0
563	641	0	0	0	0
571	654	0	0	0	0
572	667	0	0	0	0
575	673	0	0	0	0
564	671	0	0	0	0
566	654	0	0	0	0
551	624	0	0	0	0
542	583	0	0	0	0
527	547	0	0	0	0
521	503	0	0	0	0
515	473	0	0	0	0
518	452	0	0	0	0
515	448	0	0	0	0
515	436	0	0	0	0
515	435	0	0	0	0
520	436	0	0	0	0
518	441	0	0	0	0
523	441	0	0	0	0
516	448	0	0	0	0
520	441	0	0	0	0
518	448	0	0	0	0
526	457	0	0	0	0
519	457	0	0	0	0
524	463	0	0	0	0
524	470	0	0	0	0
532	470	0	0	0	0
535	476	0	0	0	0
537	476	0	0	0	0
524	483	0	0	0	0
526	487	0	0	0	0
515	489	0	0	0	0
523	486	0	0	0	0
516	484	0	0	0	0
519	480	0	0	0	0
524	481	0	0	0	0
532	487	0	0	0	0
526	492	0	0	0	0
527	499	0	0	0	0
527	519	0	0	0	0
536	561	0	0	0	0
531	583	0	0	0	0
534	588	0	0	0	0
532	603	0	0	0	0
536	571	0	0	0	0
534	568	0	0	0	0
542	534	0	0	0	0
536	484	0	0	0	0
527	460	0	0	0	0
521	447	0	0	0	0
527	440	0	0	0	0
526	440	0	0	0	0
534	438	0	0	0	0
531	449	0	0	0	0
537	504	0	0	0	0
551	575	0	0	0	0
595	654	0	0	0	0
617	402	0	0	0	0
587	1	0	0	0	0
512	1	0	0	0	0
495	24	0	0	0	0
511	288	0	0	0	0
536	423	0	0	0	0
527	478	0	0	0	0
536	501	0	0	0	0
535	508	0	0	0	0
545	510	0	0	0	0
545	508	0	0	0	0
547	511	0	0	0	0
542	504	0	0	0	0
550	496	0	0	0	0
542	499	0	0	0	0
553	508	0	0	0	0
543	519	0	0	0	0
556	521	0	0	0	0
556	531	0	0	0	0
563	548	0	0	0	0
562	568	0	0	0	0
575	580	0	0	0	0
575	595	0	0	0	0
583	608	0	0	0	0
583	620	0	0	0	0
595	624	0	0	0	0
583	632	0	0	0	0
583	622	0	0	0	0
577	607	0	0	0	0
568	574	0	0	0	0
545	547	0	0	0	0
537	505	0	0	0	0
527	472	0	0	0	0
528	443	0	0	0	0
519	419	0	0	0	0
529	411	0	0	0	0
520	403	0	0	0	0
527	399	0	0	0	0
519	403	0	0	0	0
519	401	0	0	0	0
519	410	0	0	0	0
527	412	0	0	0	0
518	411	0	0	0	0
528	409	0	0	0	0
525	417	0	0	0	0
536	415	0	0	0	0
531	415	0	0	0	0
540	415	0	0	0	0
536	415	0	0	0	0
537	416	0	0	0	0
532	423	0	0	0	0
537	421	0	0	0	0
529	428	0	0	0	0
531	423	0	0	0	0
529	422	0	0	0	0
532	415	0	0	0	0
524	416	0	0	0	0
536	408	0	0	0	0
526	408	0	0	0	0
534	408	0	0	0	0
533	408	0	0	0	0
536	405	0	0	0	0
536	404	0	0	0	0
536	408	0	0	0	0
531	431	0	0	0	0
534	470	0	0	0	0
527	478	0	0	0	0
536	492	0	0	0	0
539	492	0	0	0	0
546	463	0	0	0	0
541	464	0	0	0	0
551	433	0	0	0	0
531	388	0	0	0	0
536	376	0	0	0	0
528	371	0	0	0	0
532	367	0	0	0	0
524	371	0	0	0	0
535	371	0	0	0	0
530	385	0	0	0	0
543	441	0	0	0	0
557	524	0	0	0	0
600	599	0	0	0	0
617	243	0	0	0	0
575	1	0	0	0	0
504	1	0	0	0	0
504	1	0	0	0	0
518	239	0	0	0	0
547	423	0	0	0	0
540	419	0	0	0	0
542	451	0	0	0	0
542	455	0	0	0	0
551	451	0	0	0	0
547	462	0	0	0	0
552	465	0	0	0	0
547	465	0	0	0	0
551	472	0	0	0	0
547	487	0	0	0	0
558	493	0	0	0	0
553	502	0	0	0	0
561	508	0	0	0	0
561	526	0	0	0	0
571	547	0	0	0	0
568	560	0	0	0	0
577	572	0	0	0	0
582	594	0	0	0	0
596	612	0	0	0	0
591	627	0	0	0	0
600	635	0	0	0	0
591	639	0	0	0	0
591	628	0	0	0	0
572	608	0	0	0	0
575	575	0	0	0	0
556	540	0	0	0	0
547	499	0	0	0	0
539	467	0	0	0	0
543	444	0	0	0	0
530	428	0	0	0	0
537	419	0	0	0	0
524	414	0	0	0	0
532	407	0	0	0	0
532	414	0	0	0	0
537	415	0	0	0	0
535	420	0	0	0	0
543	417	0	0	0	0
535	415	0	0	0	0
543	419	0	0	0	0
536	423	0	0	0	0
543	422	0	0	0	0
539	419	0	0	0	0
544	414	0	0	0	0
543	412	0	0	0	0
551	411	0	0	0	0
545	414	0	0	0	0
548	415	0	0	0	0
539	414	0	0	0	0
547	415	0	0	0	0
543	419	0	0	0	0
543	414	0	0	0	0
537	412	0	0	0	0
545	414	0	0	0	0
542	408	0	0	0	0
547	415	0	0	0	0
546	421	0	0	0	0
551	423	0	0	0	0
550	427	0	0	0	0
556	423	0	0	0	0
551	427	0	0	0	0
551	423	0	0	0	0
542	422	0	0	0	0
561	423	0	0	0	0
547	423	0	0	0	0
551	440	0	0	0	0
545	481	0	0	0	0
556	496	0	0	0	0
551	505	0	0	0	0
556	510	0	0	0	0
547	481	0	0	0	0
561	477	0	0	0	0
562	459	0	0	0	0
547	417	0	0	0	0
536	399	0	0	0	0
540	387	0	0	0	0
539	391	0	0	0	0
542	387	0	0	0	0
536	385	0	0	0	0
536	396	0	0	0	0
543	460	0	0	0	0
568	534	0	0	0	0
598	605	0	0	0	0
632	268	0	0	0	0
571	1	0	0	0	0
515	1	0	0	0	0
496	1	0	0	0	0
519	259	0	0	0	0
531	423	0	0	0	0
536	435	0	0	0	0
528	475	0	0	0	0
537	472	0	0	0	0
537	473	0	0	0	0
543	478	0	0	0	0
543	480	0	0	0	0
552	479	0	0	0	0
545	480	0	0	0	0
551	491	0	0	0	0
549	504	0	0	0	0
559	511	0	0	0	0
551	524	0	0	0	0
559	543	0	0	0	0
561	566	0	0	0	0
568	584	0	0	0	0
568	598	0	0	0	0
579	615	0	0	0	0
577	630	0	0	0	0
589	639	0	0	0	0
584	652	0	0	0	0
588	655	0	0	0	0
583	652	0	0	0	0
575	625	0	0	0	0
561	599	0	0	0	0
551	556	0	0	0	0
536	515	0	0	0	0
539	476	0	0	0	0
525	449	0	0	0	0
527	433	0	0	0	0
531	432	0	0	0	0
531	420	0	0	0	0
520	420	0	0	0	0
529	422	0	0	0	0
524	415	0	0	0	0
527	417	0	0	0	0
521	423	0	0	0	0
531	419	0	0	0	0
536	428	0	0	0	0
539	433	0	0	0	0
526	439	0	0	0	0
539	443	0	0	0	0
535	446	0	0	0	0
537	448	0	0	0	0
537	451	0	0	0	0
536	448	0	0	0	0
531	452	0	0	0	0
536	449	0	0	0	0
527	452	0	0	0	0
535	448	0	0	0	0
524	444	0	0	0	0
534	444	0	0	0	0
531	448	0	0	0	0
539	452	0	0	0	0
529	457	0	0	0	0
540	459	0	0	0	0
531	460	0	0	0	0
536	460	0	0	0	0
529	456	0	0	0	0
536	452	0	0	0	0
535	455	0	0	0	0
543	449	0	0	0	0
534	451	0	0	0	0
536	451	0	0	0	0
536	457	0	0	0	0
545	476	0	0	0	0
536	516	0	0	0	0
541	519	0	0	0	0
540	535	0	0	0	0
547	529	0	0	0	0
540	508	0	0	0	0
551	504	0	0	0	0
540	472	0	0	0	0
542	432	0	0	0	0
532	428	0	0	0	0
536	417	0	0	0	0
535	414	0	0	0	0
540	415	0	0	0	0
536	412	0	0	0	0
540	433	0	0	0	0
543	504	0	0	0	0
572	580	0	0	0	0
609	615	0	0	0	0
625	172	0	0	0	0
560	1	0	0	0	0
504	1	0	0	0	0
500	88	0	0	0	0
527	366	0	0	0	0
527	440	0	0	0	0
536	480	0	0	0	0
536	494	0	0	0	0
542	492	0	0	0	0
540	494	0	0	0	0
547	496	0	0	0	0
547	502	0	0	0	0
552	499	0	0	0	0
548	502	0	0	0	0
551	513	0	0	0	0
551	523	0	0	0	0
558	524	0	0	0	0
553	536	0	0	0	0
569	556	0	0	0	0
564	568	0	0	0	0
575	582	0	0	0	0
571	603	0	0	0	0
581	614	0	0	0	0
583	627	0	0	0	0
590	639	0	0	0	0
590	648	0	0	0	0
592	649	0	0	0	0
583	639	0	0	0	0
575	615	0	0	0	0
560	583	0	0	0	0
556	540	0	0	0	0
537	500	0	0	0	0
540	459	0	0	0	0
531	433	0	0	0	0
527	415	0	0	0	0
529	409	0	0	0	0
534	401	0	0	0	0
521	401	0	0	0	0
527	406	0	0	0	0
519	408	0	0	0	0
529	408	0	0	0	0
523	407	0	0	0	0
531	406	0	0	0	0
528	408	0	0	0	0
537	414	0	0	0	0
531	419	0	0	0	0
543	422	0	0	0	0
536	419	0	0	0	0
543	419	0	0	0	0
536	419	0	0	0	0
542	414	0	0	0	0
532	416	0	0	0	0
536	415	0	0	0	0
531	412	0	0	0	0
540	406	0	0	0	0
533	406	0	0	0	0
537	399	0	0	0	0
532	398	0	0	0	0
543	398	0	0	0	0
540	399	0	0	0	0
542	401	0	0	0	0
537	400	0	0	0	0
543	397	0	0	0	0
539	399	0	0	0	0
542	396	0	0	0	0
536	397	0	0	0	0
540	398	0	0	0	0
537	403	0	0	0	0
548	406	0	0	0	0
542	412	0	0	0	0
543	411	0	0	0	0
543	415	0	0	0	0
551	418	0	0	0	0
543	419	0	0	0	0
547	419	0	0	0	0
543	419	0	0	0	0
550	423	0	0	0	0
540	423	0	0	0	0
547	423	0	0	0	0
542	428	0	0	0	0
551	440	0	0	0	0
543	468	0	0	0	0
551	504	0	0	0	0
545	512	0	0	0	0
553	516	0	0	0	0
545	487	0	0	0	0
558	491	0	0	0	0
555	472	0	0	0	0
551	428	0	0	0	0
540	412	0	0	0	0
543	401	0	0	0	0
534	401	0	0	0	0
545	403	0	0	0	0
540	403	0	0	0	0
543	415	0	0	0	0
543	472	0	0	0	0
563	547	0	0	0	0
599	631	0	0	0	0
638	327	0	0	0	0
583	1	0	0	0	0
519	1	0	0	0	0
507	27	0	0	0	0
536	300	0	0	0	0
538	416	0	0	0	0
550	460	0	0	0	0
537	483	0	0	0	0
543	480	0	0	0	0
543	480	0	0	0	0
551	482	0	0	0	0
545	487	0	0	0	0
555	480	0	0	0	0
553	489	0	0	0	0
553	502	0	0	0	0
556	518	0	0	0	0
563	526	0	0	0	0
558	537	0	0	0	0
568	559	0	0	0	0
563	579	0	0	0	0
575	587	0	0	0	0
569	600	0	0	0	0
579	611	0	0	0	0
583	627	0	0	0	0
590	643	0	0	0	0
590	664	0	0	0	0
593	671	0	0	0	0
585	668	0	0	0	0
587	654	0	0	0	0
572	620	0	0	0	0
570	579	0	0	0	0
548	532	0	0	0	0
548	492	0	0	0	0
540	461	0	0	0	0
540	435	0	0	0	0
528	419	0	0	0	0
529	418	0	0	0	0
527	414	0	0	0	0
531	412	0	0	0	0
527	411	0	0	0	0
531	408	0	0	0	0
527	415	0	0	0	0
534	412	0	0	0	0
527	415	0	0	0	0
540	423	0	0	0	0
536	432	0	0	0	0
536	427	0	0	0	0
529	431	0	0	0	0
545	431	0	0	0	0
536	431	0	0	0	0
537	428	0	0	0	0
534	425	0	0	0	0
543	427	0	0	0	0
531	424	0	0	0	0
540	423	0	0	0	0
535	419	0	0	0	0
540	419	0	0	0	0
531	423	0	0	0	0
543	419	0	0	0	0
536	424	0	0	0	0
540	423	0	0	0	0
536	423	0	0	0	0
543	425	0	0	0	0
539	427	0	0	0	0
543	422	0	0	0	0
531	422	0	0	0	0
545	423	0	0	0	0
536	423	0	0	0	0
539	417	0	0	0	0
531	420	0	0	0	0
540	417	0	0	0	0
535	419	0	0	0	0
540	415	0	0	0	0
534	414	0	0	0	0
540	413	0	0	0	0
539	417	0	0	0	0
541	417	0	0	0	0
540	432	0	0	0	0
545	465	0	0	0	0
543	499	0	0	0	0
551	512	0	0	0	0
547	524	0	0	0	0
547	494	0	0	0	0
550	495	0	0	0	0
556	470	0	0	0	0
543	422	0	0	0	0
543	408	0	0	0	0
534	399	0	0	0	0
540	397	0	0	0	0
534	407	0	0	0	0
540	408	0	0	0	0
534	423	0	0	0	0
547	480	0	0	0	0
560	559	0	0	0	0
603	625	0	0	0	0
623	295	0	0	0	0
587	1	0	0	0	0
508	1	0	0	0	0
499	30	0	0	0	0
516	312	0	0	0	0
532	422	0	0	0	0
529	476	0	0	0	0
536	499	0	0	0	0
535	504	0	0	0	0
543	507	0	0	0	0
536	513	0	0	0	0
542	519	0	0	0	0
539	518	0	0	0	0
546	519	0	0	0	0
540	524	0	0	0	0
551	532	0	0	0	0
547	537	0	0	0	0
557	547	0	0	0	0
551	567	0	0	0	0
561	582	0	0	0	0
563	600	0	0	0	0
568	615	0	0	0	0
564	627	0	0	0	0
583	646	0	0	0	0
579	652	0	0	0	0
587	659	0	0	0	0
579	667	0	0	0	0
579	659	0	0	0	0
572	639	0	0	0	0
568	608	0	0	0	0
552	569	0	0	0	0
543	527	0	0	0	0
528	487	0	0	0	0
531	460	0	0	0	0
528	440	0	0	0	0
531	427	0	0	0	0
523	423	0	0	0	0
528	415	0	0	0	0
515	417	0	0	0	0
526	419	0	0	0	0
521	417	0	0	0	0
526	420	0	0	0	0
524	413	0	0	0	0
531	411	0	0	0	0
531	419	0	0	0	0
536	419	0	0	0	0
528	425	0	0	0	0
539	423	0	0	0	0
536	423	0	0	0	0
540	428	0	0	0	0
537	429	0	0	0	0
540	429	0	0	0	0
527	427	0	0	0	0
536	423	0	0	0	0
529	423	0	0	0	0
536	415	0	0	0	0
532	419	0	0	0	0
542	419	0	0	0	0
531	422	0	0	0	0
542	425	0	0	0	0
534	430	0	0	0	0
539	423	0	0	0	0
539	427	0	0	0	0
540	423	0	0	0	0
536	419	0	0	0	0
542	419	0	0	0	0
533	418	0	0	0	0
543	415	0	0	0	0
535	423	0	0	0	0
537	417	0	0	0	0
537	422	0	0	0	0
543	423	0	0	0	0
529	420	0	0	0	0
550	419	0	0	0	0
543	427	0	0	0	0
550	463	0	0	0	0
542	489	0	0	0	0
549	487	0	0	0	0
547	505	0	0	0	0
547	480	0	0	0	0
551	480	0	0	0	0
566	463	0	0	0	0
550	422	0	0	0	0
547	399	0	0	0	0
536	391	0	0	0	0
543	385	0	0	0	0
542	387	0	0	0	0
544	387	0	0	0	0
531	391	0	0	0	0
551	448	0	0	0	0
560	527	0	0	0	0
608	609	0	0	0	0
627	326	0	0	0	0
593	1	0	0	0	0
519	1	0	0	0	0
503	1	0	0	0	0
519	255	0	0	0	0
543	411	0	0	0	0
537	438	0	0	0	0
545	466	0	0	0	0
545	471	0	0	0	0
559	472	0	0	0	0
546	475	0	0	0	0
557	476	0	0	0	0
548	480	0	0	0	0
560	483	0	0	0	0
556	496	0	0	0	0
563	505	0	0	0	0
556	516	0	0	0	0
563	528	0	0	0	0
561	543	0	0	0	0
572	568	0	0	0	0
572	582	0	0	0	0
583	600	0	0	0	0
582	623	0	0	0	0
595	633	0	0	0	0
600	652	0	0	0	0
609	660	0	0	0	0
591	668	0	0	0	0
593	662	0	0	0	0
578	649	0	0	0	0
575	616	0	0	0	0
558	580	0	0	0	0
551	537	0	0	0	0
540	497	0	0	0	0
541	468	0	0	0	0
535	451	0	0	0	0
540	440	0	0	0	0
534	436	0	0	0	0
535	428	0	0	0	0
524	428	0	0	0	0
539	431	0	0	0	0
521	423	0	0	0	0
531	423	0	0	0	0
527	419	0	0	0	0
536	407	0	0	0	0
528	415	0	0	0	0
540	423	0	0	0	0
539	423	0	0	0	0
551	425	0	0	0	0
537	427	0	0	0	0
547	429	0	0	0	0
543	430	0	0	0	0
543	423	0	0	0	0
536	428	0	0	0	0
542	420	0	0	0	0
536	422	0	0	0	0
543	419	0	0	0	0
536	417	0	0	0	0
546	415	0	0	0	0
540	412	0	0	0	0
547	419	0	0	0	0
542	423	0	0	0	0
551	416	0	0	0	0
543	419	0	0	0	0
547	419	0	0	0	0
540	415	0	0	0	0
542	410	0	0	0	0
542	415	0	0	0	0
548	419	0	0	0	0
547	427	0	0	0	0
547	425	0	0	0	0
536	424	0	0	0	0
547	428	0	0	0	0
543	425	0	0	0	0
540	430	0	0	0	0
541	455	0	0	0	0
550	499	0	0	0	0
540	507	0	0	0	0
550	524	0	0	0	0
543	512	0	0	0	0
551	492	0	0	0	0
550	484	0	0	0	0
551	449	0	0	0	0
536	408	0	0	0	0
543	401	0	0	0	0
534	396	0	0	0	0
540	396	0	0	0	0
537	396	0	0	0	0
543	398	0	0	0	0
536	433	0	0	0	0
555	507	0	0	0	0
575	591	0	0	0	0
627	527	0	0	0	0
604	38	0	0	0	0
545	1	0	0	0	0
496	1	0	0	0	0
513	134	0	0	0	0
528	385	0	0	0	0
535	432	0	0	0	0
531	473	0	0	0	0
537	481	0	0	0	0
531	483	0	0	0	0
543	487	0	0	0	0
543	496	0	0	0	0
548	497	0	0	0	0
537	497	0	0	0	0
548	505	0	0	0	0
541	518	0	0	0	0
551	519	0	0	0	0
551	534	0	0	0	0
559	546	0	0	0	0
556	566	0	0	0	0
567	583	0	0	0	0
561	600	0	0	0	0
572	619	0	0	0	0
575	632	0	0	0	0
588	647	0	0	0	0
583	664	0	0	0	0
595	671	0	0	0	0
583	679	0	0	0	0
587	662	0	0	0	0
569	636	0	0	0	0
563	601	0	0	0	0
545	556	0	0	0	0
545	515	0	0	0	0
531	486	0	0	0	0
536	459	0	0	0	0
527	443	0	0	0	0
534	440	0	0	0	0
524	435	0	0	0	0
531	428	0	0	0	0
523	432	0	0	0	0
526	425	0	0	0	0
519	427	0	0	0	0
531	429	0	0	0	0
527	428	0	0	0	0
531	427	0	0	0	0
527	428	0	0	0	0
540	432	0	0	0	0
529	432	0	0	0	0
537	427	0	0	0	0
536	428	0	0	0	0
540	425	0	0	0	0
531	423	0	0	0	0
536	423	0	0	0	0
531	423	0	0	0	0
536	422	0	0	0	0
530	423	0	0	0	0
540	417	0	0	0	0
536	416	0	0	0	0
540	419	0	0	0	0
534	423	0	0	0	0
543	422	0	0	0	0
536	423	0	0	0	0
543	423	0	0	0	0
536	423	0	0	0	0
540	419	0	0	0	0
543	427	0	0	0	0
542	422	0	0	0	0
540	423	0	0	0	0
545	423	0	0	0	0
536	419	0	0	0	0
545	419	0	0	0	0
536	417	0	0	0	0
543	415	0	0	0	0
536	427	0	0	0	0
545	449	0	0	0	0
539	491	0	0	0	0
543	492	0	0	0	0
547	519	0	0	0	0
553	492	0	0	0	0
547	486	0	0	0	0
560	476	0	0	0	0
550	432	0	0	0	0
545	404	0	0	0	0
537	399	0	0	0	0
536	387	0	0	0	0
531	390	0	0	0	0
543	387	0	0	0	0
540	398	0	0	0	0
545	433	0	0	0	0
552	510	0	0	0	0
600	608	0	0	0	0
628	489	0	0	0	0
609	3	0	0	0	0
531	1	0	0	0	0
502	1	0	0	0	0
509	184	0	0	0	0
537	398	0	0	0	0
532	440	0	0	0	0
542	472	0	0	0	0
543	479	0	0	0	0
547	476	0	0	0	0
540	480	0	0	0	0
551	484	0	0	0	0
543	487	0	0	0	0
555	493	0	0	0	0
550	497	0	0	0	0
556	504	0	0	0	0
555	508	0	0	0	0
563	516	0	0	0	0
556	527	0	0	0	0
560	543	0	0	0	0
566	568	0	0	0	0
577	583	0	0	0	0
575	606	0	0	0	0
590	624	0	0	0	0
583	636	0	0	0	0
600	649	0	0	0	0
591	659	0	0	0	0
596	652	0	0	0	0
582	643	0	0	0	0
575	617	0	0	0	0
563	579	0	0	0	0
555	539	0	0	0	0
537	500	0	0	0	0
540	471	0	0	0	0
530	444	0	0	0	0
542	432	0	0	0	0
534	423	0	0	0	0
536	415	0	0	0	0
524	417	0	0	0	0
527	415	0	0	0	0
524	412	0	0	0	0
531	414	0	0	0	0
523	409	0	0	0	0
534	404	0	0	0	0
535	409	0	0	0	0
542	411	0	0	0	0
531	417	0	0	0	0
543	417	0	0	0	0
540	415	0	0	0	0
542	415	0	0	0	0
535	415	0	0	0	0
542	412	0	0	0	0
531	412	0	0	0	0
537	414	0	0	0	0
531	415	0	0	0	0
540	415	0	0	0	0
527	412	0	0	0	0
536	412	0	0	0	0
531	415	0	0	0	0
544	415	0	0	0	0
540	417	0	0	0	0
542	419	0	0	0	0
534	423	0	0	0	0
550	425	0	0	0	0
537	423	0	0	0	0
540	419	0	0	0	0
536	419	0	0	0	0
545	411	0	0	0	0
539	415	0	0	0	0
543	414	0	0	0	0
536	413	0	0	0	0
543	412	0	0	0	0
539	420	0	0	0	0
550	431	0	0	0	0
545	467	0	0	0	0
550	499	0	0	0	0
547	499	0	0	0	0
555	519	0	0	0	0
543	494	0	0	0	0
556	487	0	0	0	0
560	473	0	0	0	0
556	429	0	0	0	0
541	411	0	0	0	0
543	403	0	0	0	0
545	396	0	0	0	0
543	399	0	0	0	0
542	399	0	0	0	0
550	408	0	0	0	0
543	463	0	0	0	0
575	543	0	0	0	0
611	633	0	0	0	0
636	359	0	0	0	0
591	1	0	0	0	0
529	1	0	0	0	0
502	3	0	0	0	0
526	260	0	0	0	0
536	403	0	0	0	0
543	440	0	0	0	0
540	465	0	0	0	0
547	467	0	0	0	0
540	463	0	0	0	0
551	470	0	0	0	0
550	475	0	0	0	0
558	472	0	0	0	0
545	473	0	0	0	0
560	484	0	0	0	0
545	497	0	0	0	0
559	505	0	0	0	0
555	518	0	0	0	0
563	528	0	0	0	0
563	551	0	0	0	0
575	575	0	0	0	0
569	593	0	0	0	0
579	612	0	0	0	0
579	628	0	0	0	0
595	639	0	0	0	0
591	651	0	0	0	0
595	653	0	0	0	0
584	647	0	0	0	0
583	630	0	0	0	0
566	600	0	0	0	0
560	561	0	0	0	0
540	521	0	0	0	0
540	483	0	0	0	0
529	455	0	0	0	0
536	433	0	0	0	0
531	423	0	0	0	0
531	419	0	0	0	0
523	415	0	0	0	0
529	412	0	0	0	0
524	416	0	0	0	0
528	414	0	0	0	0
524	419	0	0	0	0
531	415	0	0	0	0
529	415	0	0	0	0
537	419	0	0	0	0
527	423	0	0	0	0
542	427	0	0	0	0
534	433	0	0	0	0
543	433	0	0	0	0
542	432	0	0	0	0
540	432	0	0	0	0
531	431	0	0	0	0
537	431	0	0	0	0
532	433	0	0	0	0
535	431	0	0	0	0
536	430	0	0	0	0
539	428	0	0	0	0
534	430	0	0	0	0
545	428	0	0	0	0
537	427	0	0	0	0
540	425	0	0	0	0
536	428	0	0	0	0
540	423	0	0	0	0
536	425	0	0	0	0
536	423	0	0	0	0
531	422	0	0	0	0
545	423	0	0	0	0
536	423	0	0	0	0
534	419	0	0	0	0
531	423	0	0	0	0
547	432	0	0	0	0
537	460	0	0	0	0
536	492	0	0	0	0
534	495	0	0	0	0
550	515	0	0	0	0
539	487	0	0	0	0
545	480	0	0	0	0
547	472	0	0	0	0
547	428	0	0	0	0
536	403	0	0	0	0
537	395	0	0	0	0
531	388	0	0	0	0
536	387	0	0	0	0
531	387	0	0	0	0
543	396	0	0	0	0
536	440	0	0	0	0
553	511	0	0	0	0
591	598	0	0	0	0
627	423	0	0	0	0
595	1	0	0	0	0
537	1	0	0	0	0
494	1	0	0	0	0
526	184	0	0	0	0
534	411	0	0	0	0
537	436	0	0	0	0
536	476	0	0	0	0
540	478	0	0	0	0
536	480	0	0	0	0
544	487	0	0	0	0
545	495	0	0	0	0
547	494	0	0	0	0
540	500	0	0	0	0
548	510	0	0	0	0
543	516	0	0	0	0
547	526	0	0	0	0
545	541	0	0	0	0
555	559	0	0	0	0
555	575	0	0	0	0
560	599	0	0	0	0
560	622	0	0	0	0
574	637	0	0	0	0
571	655	0	0	0	0
583	671	0	0	0	0
583	681	0	0	0	0
583	684	0	0	0	0
575	679	0	0	0	0
579	663	0	0	0	0
561	631	0	0	0	0
553	591	0	0	0	0
540	553	0	0	0	0
535	515	0	0	0	0
523	480	0	0	0	0
534	459	0	0	0	0
519	440	0	0	0	0
527	423	0	0	0	0
519	422	0	0	0	0
521	420	0	0	0	0
521	428	0	0	0	0
524	423	0	0	0	0
518	430	0	0	0	0
527	430	0	0	0	0
524	432	0	0	0	0
531	432	0	0	0	0
532	439	0	0	0	0
536	439	0	0	0	0
532	440	0	0	0	0
540	439	0	0	0	0
527	438	0	0	0	0
536	440	0	0	0	0
529	440	0	0	0	0
529	438	0	0	0	0
531	441	0	0	0	0
537	444	0	0	0	0
531	438	0	0	0	0
540	435	0	0	0	0
536	440	0	0	0	0
539	435	0	0	0	0
536	433	0	0	0	0
539	438	0	0	0	0
536	438	0	0	0	0
543	438	0	0	0	0
536	441	0	0	0	0
540	433	0	0	0	0
537	435	0	0	0	0
543	434	0	0	0	0
536	432	0	0	0	0
539	432	0	0	0	0
537	433	0	0	0	0
540	432	0	0	0	0
537	433	0	0	0	0
543	440	0	0	0	0
537	480	0	0	0	0
547	500	0	0	0	0
537	504	0	0	0	0
551	526	0	0	0	0
543	496	0	0	0	0
551	494	0	0	0	0
547	473	0	0	0	0
547	425	0	0	0	0
539	408	0	0	0	0
537	399	0	0	0	0
536	396	0	0	0	0
541	396	0	0	0	0
529	395	0	0	0	0
540	407	0	0	0	0
539	463	0	0	0	0
568	536	0	0	0	0
600	622	0	0	0	0
632	323	0	0	0	0
581	1	0	0	0	0
525	1	0	0	0	0
492	1	0	0	0	0
527	263	0	0	0	0
536	423	0	0	0	0
543	448	0	0	0	0
534	476	0	0	0	0
547	479	0	0	0	0
542	479	0	0	0	0
547	480	0	0	0	0
543	486	0	0	0	0
554	486	0	0	0	0
543	492	0	0	0	0
546	496	0	0	0	0
547	512	0	0	0	0
560	518	0	0	0	0
553	527	0	0	0	0
568	542	0	0	0	0
559	560	0	0	0	0
572	583	0	0	0	0
573	603	0	0	0	0
579	620	0	0	0	0
579	636	0	0	0	0
591	652	0	0	0	0
588	664	0	0	0	0
591	660	0	0	0	0
582	655	0	0	0	0
587	636	0	0	0	0
568	600	0	0	0	0
558	560	0	0	0	0
543	523	0	0	0	0
545	486	0	0	0	0
529	455	0	0	0	0
536	435	0	0	0	0
527	423	0	0	0	0
536	415	0	0	0	0
526	409	0	0	0	0
529	403	0	0	0	0
524	408	0	0	0	0
531	407	0	0	0	0
521	408	0	0	0	0
531	411	0	0	0	0
527	413	0	0	0	0
543	419	0	0	0	0
531	424	0	0	0	0
537	423	0	0	0	0
540	423	0	0	0	0
540	422	0	0	0	0
537	423	0	0	0	0
542	415	0	0	0	0
534	419	0	0	0	0
537	419	0	0	0	0
531	419	0	0	0	0
536	422	0	0	0	0
534	417	0	0	0	0
540	412	0	0	0	0
536	415	0	0	0	0
543	415	0	0	0	0
536	412	0	0	0	0
548	417	0	0	0	0
543	419	0	0	0	0
550	419	0	0	0	0
540	424	0	0	0	0
547	423	0	0	0	0
541	428	0	0	0	0
547	425	0	0	0	0
542	432	0	0	0	0
548	432	0	0	0	0
537	438	0	0	0	0
555	438	0	0	0	0
543	433	0	0	0	0
548	435	0	0	0	0
542	444	0	0	0	0
550	454	0	0	0	0
543	497	0	0	0	0
550	513	0	0	0	0
542	521	0	0	0	0
556	524	0	0	0	0
551	497	0	0	0	0
563	495	0	0	0	0
560	465	0	0	0	0
549	425	0	0	0	0
536	414	0	0	0	0
545	403	0	0	0	0
536	408	0	0	0	0
542	408	0	0	0	0
536	398	0	0	0	0
540	420	0	0	0	0
542	489	0	0	0	0
579	572	0	0	0	0
615	608	0	0	0	0
630	176	0	0	0	0
563	1	0	0	0	0
515	1	0	0	0	0
504	38	0	0	0	0
539	336	0	0	0	0
536	423	0	0	0	0
539	451	0	0	0	0
532	477	0	0	0	0
547	473	0	0	0	0
547	476	0	0	0	0
542	479	0	0	0	0
544	487	0	0	0	0
556	484	0	0	0	0
545	487	0	0	0	0
556	498	0	0	0	0
551	511	0	0	0	0
556	513	0	0	0	0
551	521	0	0	0	0
561	539	0	0	0	0
561	558	0	0	0	0
568	574	0	0	0	0
569	592	0	0	0	0
580	608	0	0	0	0
585	624	0	0	0	0
591	639	0	0	0	0
583	649	0	0	0	0
595	652	0	0	0	0
583	646	0	0	0	0
577	625	0	0	0	0
561	585	0	0	0	0
553	543	0	0	0	0
542	508	0	0	0	0
536	472	0	0	0	0
527	444	0	0	0	0
534	425	0	0	0	0
527	418	0	0	0	0
531	412	0	0	0	0
529	409	0	0	0	0
534	408	0	0	0	0
523	408	0	0	0	0
528	393	0	0	0	0
529	400	0	0	0	0
527	401	0	0	0	0
527	406	0	0	0	0
537	411	0	0	0	0
536	422	0	0	0	0
540	423	0	0	0	0
532	430	0	0	0	0
537	427	0	0	0	0
536	423	0	0	0	0
534	423	0	0	0	0
531	423	0	0	0	0
529	420	0	0	0	0
534	422	0	0	0	0
531	417	0	0	0	0
531	415	0	0	0	0
539	415	0	0	0	0
531	415	0	0	0	0
540	415	0	0	0	0
535	419	0	0	0	0
539	415	0	0	0	0
534	415	0	0	0	0
536	416	0	0	0	0
527	415	0	0	0	0
536	412	0	0	0	0
531	415	0	0	0	0
536	412	0	0	0	0
527	415	0	0	0	0
532	414	0	0	0	0
528	415	0	0	0	0
531	411	0	0	0	0
529	415	0	0	0	0
536	432	0	0	0	0
527	478	0	0	0	0
542	483	0	0	0	0
537	501	0	0	0	0
545	499	0	0	0	0
536	483	0	0	0	0
558	483	0	0	0	0
545	455	0	0	0	0
543	417	0	0	0	0
531	408	0	0	0	0
536	399	0	0	0	0
531	401	0	0	0	0
540	402	0	0	0	0
529	407	0	0	0	0
536	441	0	0	0	0
540	513	0	0	0	0
574	592	0	0	0	0
609	560	0	0	0	0
615	71	0	0	0	0
539	1	0	0	0	0
497	1	0	0	0	0
503	124	0	0	0	0
534	393	0	0	0	0
523	449	0	0	0	0
536	492	0	0	0	0
539	507	0	0	0	0
541	505	0	0	0	0
536	507	0	0	0	0
542	508	0	0	0	0
